12:57:19.073 -> 342
12:57:19.073 -> 344
12:57:19.073 -> 323
12:57:19.073 -> 327
12:57:19.073 -> 345
12:57:19.073 -> 337
12:57:19.073 -> 324
12:57:19.073 -> 332
12:57:19.117 -> 356
12:57:19.117 -> 347
12:57:19.117 -> 333
12:57:19.117 -> 337
12:57:19.117 -> 345
12:57:19.117 -> 331
12:57:19.117 -> 324
12:57:19.117 -> 333
12:57:19.117 -> 352
12:57:19.169 -> 331
12:57:19.169 -> 312
12:57:19.169 -> 330
12:57:19.169 -> 343
12:57:19.169 -> 328
12:57:19.169 -> 310
12:57:19.169 -> 315
12:57:19.169 -> 322
12:57:19.169 -> 312
12:57:19.169 -> 302
12:57:19.205 -> 315
12:57:19.205 -> 311
12:57:19.205 -> 297
12:57:19.205 -> 291
12:57:19.205 -> 309
12:57:19.205 -> 315
12:57:19.239 -> 293
12:57:19.239 -> 289
12:57:19.239 -> 310
12:57:19.239 -> 300
12:57:19.239 -> 283
12:57:19.239 -> 286
12:57:19.239 -> 319
12:57:19.239 -> 309
12:57:19.279 -> 273
12:57:19.279 -> 279
12:57:19.279 -> 298
12:57:19.279 -> 302
12:57:19.279 -> 290
12:57:19.279 -> 304
12:57:19.279 -> 298
12:57:19.324 -> 276
12:57:19.324 -> 290
12:57:19.324 -> 296
12:57:19.324 -> 280
12:57:19.324 -> 276
12:57:19.324 -> 292
12:57:19.324 -> 304
12:57:19.324 -> 291
12:57:19.359 -> 284
12:57:19.359 -> 297
12:57:19.359 -> 302
12:57:19.359 -> 290
12:57:19.359 -> 286
12:57:19.359 -> 303
12:57:19.359 -> 315
12:57:19.405 -> 299
12:57:19.405 -> 288
12:57:19.405 -> 305
12:57:19.405 -> 323
12:57:19.405 -> 308
12:57:19.405 -> 296
12:57:19.405 -> 312
12:57:19.405 -> 309
12:57:19.405 -> 290
12:57:19.449 -> 282
12:57:19.449 -> 298
12:57:19.449 -> 301
12:57:19.449 -> 286
12:57:19.449 -> 286
12:57:19.449 -> 302
12:57:19.449 -> 299
12:57:19.449 -> 284
12:57:19.449 -> 299
12:57:19.499 -> 309
12:57:19.499 -> 296
12:57:19.499 -> 279
12:57:19.499 -> 287
12:57:19.499 -> 304
12:57:19.499 -> 324
12:57:19.499 -> 346
12:57:19.499 -> 383
12:57:19.499 -> 411
12:57:19.539 -> 384
12:57:19.539 -> 354
12:57:19.539 -> 333
12:57:19.539 -> 302
12:57:19.539 -> 258
12:57:19.539 -> 250
12:57:19.539 -> 293
12:57:19.539 -> 306
12:57:19.579 -> 296
12:57:19.579 -> 292
12:57:19.579 -> 310
12:57:19.579 -> 317
12:57:19.579 -> 307
12:57:19.579 -> 301
12:57:19.579 -> 312
12:57:19.579 -> 322
12:57:19.619 -> 313
12:57:19.619 -> 308
12:57:19.619 -> 314
12:57:19.619 -> 325
12:57:19.619 -> 303
12:57:19.619 -> 319
12:57:19.619 -> 330
12:57:19.659 -> 319
12:57:19.659 -> 320
12:57:19.659 -> 336
12:57:19.659 -> 337
12:57:19.659 -> 322
12:57:19.659 -> 326
12:57:19.659 -> 342
12:57:19.659 -> 348
12:57:19.699 -> 335
12:57:19.699 -> 338
12:57:19.699 -> 353
12:57:19.699 -> 354
12:57:19.699 -> 330
12:57:19.699 -> 359
12:57:19.699 -> 379
12:57:19.699 -> 364
12:57:19.749 -> 352
12:57:19.749 -> 373
12:57:19.749 -> 398
12:57:19.749 -> 386
12:57:19.749 -> 374
12:57:19.749 -> 388
12:57:19.749 -> 402
12:57:19.749 -> 389
12:57:19.749 -> 377
12:57:19.789 -> 393
12:57:19.789 -> 407
12:57:19.789 -> 386
12:57:19.789 -> 369
12:57:19.789 -> 384
12:57:19.789 -> 393
12:57:19.789 -> 366
12:57:19.789 -> 353
12:57:19.829 -> 364
12:57:19.829 -> 359
12:57:19.829 -> 341
12:57:19.829 -> 341
12:57:19.829 -> 353
12:57:19.829 -> 349
12:57:19.829 -> 324
12:57:19.829 -> 313
12:57:19.874 -> 333
12:57:19.874 -> 345
12:57:19.874 -> 325
12:57:19.874 -> 323
12:57:19.874 -> 332
12:57:19.874 -> 337
12:57:19.874 -> 324
12:57:19.874 -> 330
12:57:19.874 -> 352
12:57:19.921 -> 332
12:57:19.921 -> 314
12:57:19.921 -> 323
12:57:19.921 -> 352
12:57:19.921 -> 334
12:57:19.921 -> 309
12:57:19.921 -> 317
12:57:19.921 -> 329
12:57:19.967 -> 315
12:57:19.967 -> 309
12:57:19.967 -> 353
12:57:19.967 -> 325
12:57:19.967 -> 332
12:57:19.967 -> 368
12:57:19.967 -> 360
12:57:19.967 -> 268
12:57:19.967 -> 252
12:57:19.967 -> 300
12:57:20.009 -> 329
12:57:20.009 -> 298
12:57:20.009 -> 282
12:57:20.009 -> 286
12:57:20.009 -> 294
12:57:20.009 -> 262
12:57:20.009 -> 253
12:57:20.009 -> 274
12:57:20.049 -> 279
12:57:20.049 -> 265
12:57:20.049 -> 249
12:57:20.049 -> 273
12:57:20.049 -> 267
12:57:20.049 -> 251
12:57:20.049 -> 241
12:57:20.089 -> 263
12:57:20.089 -> 258
12:57:20.089 -> 237
12:57:20.089 -> 247
12:57:20.089 -> 265
12:57:20.089 -> 254
12:57:20.089 -> 236
12:57:20.089 -> 237
12:57:20.129 -> 248
12:57:20.129 -> 242
12:57:20.129 -> 230
12:57:20.129 -> 235
12:57:20.129 -> 232
12:57:20.129 -> 251
12:57:20.129 -> 246
12:57:20.169 -> 260
12:57:20.169 -> 312
12:57:20.169 -> 270
12:57:20.169 -> 245
12:57:20.169 -> 298
12:57:20.169 -> 298
12:57:20.169 -> 272
12:57:20.169 -> 280
12:57:20.209 -> 304
12:57:20.209 -> 303
12:57:20.209 -> 282
12:57:20.209 -> 279
12:57:20.209 -> 305
12:57:20.209 -> 294
12:57:20.209 -> 261
12:57:20.209 -> 249
12:57:20.249 -> 303
12:57:20.249 -> 341
12:57:20.249 -> 326
12:57:20.249 -> 325
12:57:20.249 -> 341
12:57:20.249 -> 338
12:57:20.249 -> 329
12:57:20.289 -> 338
12:57:20.289 -> 369
12:57:20.289 -> 381
12:57:20.289 -> 353
12:57:20.289 -> 414
12:57:20.289 -> 467
12:57:20.289 -> 456
12:57:20.289 -> 463
12:57:20.329 -> 456
12:57:20.329 -> 453
12:57:20.329 -> 467
12:57:20.329 -> 493
12:57:20.329 -> 527
12:57:20.329 -> 546
12:57:20.329 -> 580
12:57:20.329 -> 606
12:57:20.369 -> 631
12:57:20.369 -> 630
12:57:20.369 -> 629
12:57:20.369 -> 629
12:57:20.369 -> 623
12:57:20.369 -> 608
12:57:20.369 -> 599
12:57:20.369 -> 619
12:57:20.414 -> 637
12:57:20.414 -> 639
12:57:20.414 -> 639
12:57:20.414 -> 638
12:57:20.414 -> 611
12:57:20.414 -> 535
12:57:20.414 -> 460
12:57:20.414 -> 396
12:57:20.461 -> 373
12:57:20.461 -> 361
12:57:20.461 -> 394
12:57:20.461 -> 441
12:57:20.461 -> 465
12:57:20.461 -> 436
12:57:20.461 -> 336
12:57:20.461 -> 301
12:57:20.461 -> 330
12:57:20.508 -> 361
12:57:20.508 -> 349
12:57:20.508 -> 349
12:57:20.508 -> 369
12:57:20.508 -> 369
12:57:20.508 -> 341
12:57:20.508 -> 304
12:57:20.508 -> 258
12:57:20.508 -> 231
12:57:20.508 -> 274
12:57:20.549 -> 394
12:57:20.549 -> 493
12:57:20.549 -> 545
12:57:20.549 -> 588
12:57:20.549 -> 636
12:57:20.549 -> 641
12:57:20.549 -> 641
12:57:20.589 -> 641
12:57:20.589 -> 643
12:57:20.589 -> 643
12:57:20.589 -> 642
12:57:20.589 -> 643
12:57:20.589 -> 643
12:57:20.589 -> 643
12:57:20.589 -> 644
12:57:20.629 -> 643
12:57:20.629 -> 643
12:57:20.629 -> 643
12:57:20.629 -> 643
12:57:20.629 -> 644
12:57:20.629 -> 643
12:57:20.629 -> 643
12:57:20.669 -> 644
12:57:20.669 -> 643
12:57:20.669 -> 643
12:57:20.669 -> 643
12:57:20.669 -> 642
12:57:20.669 -> 643
12:57:20.669 -> 643
12:57:20.669 -> 642
12:57:20.709 -> 641
12:57:20.709 -> 640
12:57:20.709 -> 622
12:57:20.709 -> 554
12:57:20.709 -> 509
12:57:20.709 -> 486
12:57:20.709 -> 487
12:57:20.709 -> 522
12:57:20.749 -> 567
12:57:20.749 -> 583
12:57:20.749 -> 575
12:57:20.749 -> 574
12:57:20.749 -> 580
12:57:20.749 -> 579
12:57:20.749 -> 574
12:57:20.789 -> 583
12:57:20.789 -> 588
12:57:20.789 -> 564
12:57:20.789 -> 547
12:57:20.789 -> 556
12:57:20.789 -> 561
12:57:20.789 -> 538
12:57:20.789 -> 517
12:57:20.829 -> 515
12:57:20.829 -> 513
12:57:20.829 -> 496
12:57:20.829 -> 488
12:57:20.829 -> 496
12:57:20.829 -> 500
12:57:20.829 -> 487
12:57:20.829 -> 485
12:57:20.869 -> 498
12:57:20.869 -> 502
12:57:20.869 -> 489
12:57:20.869 -> 487
12:57:20.869 -> 499
12:57:20.869 -> 501
12:57:20.869 -> 492
12:57:20.869 -> 493
12:57:20.914 -> 505
12:57:20.914 -> 505
12:57:20.914 -> 491
12:57:20.914 -> 491
12:57:20.914 -> 502
12:57:20.914 -> 498
12:57:20.914 -> 486
12:57:20.914 -> 486
12:57:20.914 -> 495
12:57:20.949 -> 490
12:57:20.949 -> 485
12:57:20.949 -> 490
12:57:20.949 -> 482
12:57:20.949 -> 465
12:57:20.949 -> 464
12:57:20.999 -> 463
12:57:20.999 -> 447
12:57:20.999 -> 431
12:57:20.999 -> 430
12:57:20.999 -> 432
12:57:20.999 -> 417
12:57:20.999 -> 404
12:57:20.999 -> 408
12:57:20.999 -> 409
12:57:20.999 -> 395
12:57:21.039 -> 381
12:57:21.039 -> 384
12:57:21.039 -> 384
12:57:21.039 -> 368
12:57:21.039 -> 359
12:57:21.039 -> 367
12:57:21.039 -> 372
12:57:21.079 -> 361
12:57:21.079 -> 361
12:57:21.079 -> 374
12:57:21.079 -> 375
12:57:21.079 -> 362
12:57:21.079 -> 361
12:57:21.079 -> 372
12:57:21.079 -> 372
12:57:21.119 -> 360
12:57:21.119 -> 362
12:57:21.119 -> 373
12:57:21.119 -> 372
12:57:21.119 -> 361
12:57:21.119 -> 363
12:57:21.119 -> 376
12:57:21.119 -> 373
12:57:21.159 -> 361
12:57:21.159 -> 366
12:57:21.159 -> 378
12:57:21.159 -> 373
12:57:21.159 -> 366
12:57:21.159 -> 370
12:57:21.159 -> 372
12:57:21.159 -> 357
12:57:21.199 -> 340
12:57:21.199 -> 340
12:57:21.199 -> 341
12:57:21.199 -> 327
12:57:21.199 -> 318
12:57:21.199 -> 325
12:57:21.199 -> 328
12:57:21.239 -> 314
12:57:21.239 -> 306
12:57:21.239 -> 313
12:57:21.239 -> 313
12:57:21.239 -> 297
12:57:21.239 -> 289
12:57:21.239 -> 294
12:57:21.239 -> 297
12:57:21.279 -> 298
12:57:21.279 -> 324
12:57:21.279 -> 371
12:57:21.279 -> 402
12:57:21.279 -> 383
12:57:21.279 -> 324
12:57:21.279 -> 283
12:57:21.279 -> 228
12:57:21.319 -> 227
12:57:21.319 -> 263
12:57:21.319 -> 272
12:57:21.319 -> 259
12:57:21.319 -> 262
12:57:21.319 -> 273
12:57:21.319 -> 267
12:57:21.359 -> 254
12:57:21.359 -> 257
12:57:21.359 -> 266
12:57:21.359 -> 258
12:57:21.359 -> 246
12:57:21.359 -> 251
12:57:21.359 -> 258
12:57:21.359 -> 249
12:57:21.399 -> 240
12:57:21.399 -> 245
12:57:21.399 -> 253
12:57:21.399 -> 243
12:57:21.399 -> 235
12:57:21.399 -> 241
12:57:21.399 -> 245
12:57:21.439 -> 236
12:57:21.439 -> 229
12:57:21.439 -> 238
12:57:21.439 -> 242
12:57:21.439 -> 231
12:57:21.439 -> 228
12:57:21.439 -> 240
12:57:21.439 -> 243
12:57:21.479 -> 231
12:57:21.479 -> 229
12:57:21.479 -> 241
12:57:21.479 -> 244
12:57:21.479 -> 235
12:57:21.479 -> 236
12:57:21.479 -> 250
12:57:21.479 -> 252
12:57:21.519 -> 241
12:57:21.519 -> 245
12:57:21.519 -> 258
12:57:21.519 -> 258
12:57:21.519 -> 248
12:57:21.519 -> 251
12:57:21.519 -> 261
12:57:21.559 -> 256
12:57:21.559 -> 242
12:57:21.559 -> 243
12:57:21.559 -> 248
12:57:21.559 -> 234
12:57:21.559 -> 218
12:57:21.559 -> 218
12:57:21.559 -> 220
12:57:21.599 -> 206
12:57:21.599 -> 191
12:57:21.599 -> 195
12:57:21.599 -> 201
12:57:21.599 -> 190
12:57:21.599 -> 181
12:57:21.599 -> 186
12:57:21.599 -> 193
12:57:21.639 -> 176
12:57:21.639 -> 185
12:57:21.639 -> 190
12:57:21.639 -> 179
12:57:21.639 -> 175
12:57:21.639 -> 187
12:57:21.639 -> 191
12:57:21.639 -> 180
12:57:21.679 -> 177
12:57:21.679 -> 189
12:57:21.679 -> 192
12:57:21.679 -> 180
12:57:21.679 -> 180
12:57:21.679 -> 191
12:57:21.679 -> 191
12:57:21.719 -> 179
12:57:21.719 -> 180
12:57:21.719 -> 193
12:57:21.719 -> 192
12:57:21.719 -> 181
12:57:21.719 -> 184
12:57:21.719 -> 195
12:57:21.719 -> 193
12:57:21.759 -> 182
12:57:21.759 -> 186
12:57:21.759 -> 197
12:57:21.759 -> 192
12:57:21.759 -> 184
12:57:21.759 -> 190
12:57:21.759 -> 201
12:57:21.759 -> 194
12:57:21.799 -> 184
12:57:21.799 -> 192
12:57:21.799 -> 201
12:57:21.799 -> 193
12:57:21.799 -> 187
12:57:21.799 -> 195
12:57:21.799 -> 203
12:57:21.799 -> 194
12:57:21.839 -> 190
12:57:21.839 -> 203
12:57:21.839 -> 210
12:57:21.839 -> 199
12:57:21.839 -> 195
12:57:21.839 -> 208
12:57:21.839 -> 215
12:57:21.885 -> 204
12:57:21.885 -> 203
12:57:21.885 -> 217
12:57:21.885 -> 223
12:57:21.885 -> 216
12:57:21.885 -> 214
12:57:21.885 -> 222
12:57:21.885 -> 218
12:57:21.885 -> 202
12:57:21.929 -> 201
12:57:21.929 -> 211
12:57:21.929 -> 210
12:57:21.929 -> 200
12:57:21.929 -> 204
12:57:21.929 -> 217
12:57:21.929 -> 214
12:57:21.929 -> 203
12:57:21.929 -> 209
12:57:21.969 -> 216
12:57:21.969 -> 206
12:57:21.969 -> 209
12:57:21.969 -> 219
12:57:21.969 -> 220
12:57:21.969 -> 233
12:57:21.969 -> 272
12:57:22.006 -> 313
12:57:22.006 -> 311
12:57:22.006 -> 283
12:57:22.006 -> 266
12:57:22.006 -> 244
12:57:22.006 -> 193
12:57:22.006 -> 169
12:57:22.049 -> 200
12:57:22.049 -> 230
12:57:22.049 -> 225
12:57:22.049 -> 223
12:57:22.049 -> 236
12:57:22.049 -> 244
12:57:22.049 -> 234
12:57:22.049 -> 231
12:57:22.049 -> 243
12:57:22.089 -> 247
12:57:22.089 -> 237
12:57:22.089 -> 237
12:57:22.089 -> 250
12:57:22.089 -> 252
12:57:22.089 -> 242
12:57:22.089 -> 244
12:57:22.129 -> 257
12:57:22.129 -> 258
12:57:22.129 -> 247
12:57:22.129 -> 250
12:57:22.129 -> 263
12:57:22.129 -> 261
12:57:22.129 -> 253
12:57:22.129 -> 258
12:57:22.169 -> 270
12:57:22.169 -> 267
12:57:22.169 -> 259
12:57:22.169 -> 267
12:57:22.169 -> 280
12:57:22.169 -> 276
12:57:22.169 -> 269
12:57:22.209 -> 277
12:57:22.209 -> 290
12:57:22.209 -> 286
12:57:22.209 -> 282
12:57:22.209 -> 293
12:57:22.209 -> 305
12:57:22.209 -> 299
12:57:22.209 -> 296
12:57:22.249 -> 308
12:57:22.249 -> 317
12:57:22.249 -> 308
12:57:22.249 -> 305
12:57:22.249 -> 315
12:57:22.249 -> 320
12:57:22.249 -> 307
12:57:22.249 -> 299
12:57:22.289 -> 305
12:57:22.289 -> 304
12:57:22.289 -> 286
12:57:22.289 -> 283
12:57:22.289 -> 282
12:57:22.289 -> 268
12:57:22.289 -> 266
12:57:22.329 -> 274
12:57:22.329 -> 271
12:57:22.329 -> 258
12:57:22.329 -> 259
12:57:22.329 -> 272
12:57:22.329 -> 270
12:57:22.329 -> 260
12:57:22.329 -> 262
12:57:22.369 -> 275
12:57:22.369 -> 272
12:57:22.369 -> 264
12:57:22.369 -> 268
12:57:22.369 -> 279
12:57:22.369 -> 277
12:57:22.369 -> 268
12:57:22.369 -> 276
12:57:22.409 -> 287
12:57:22.409 -> 281
12:57:22.409 -> 274
12:57:22.409 -> 281
12:57:22.409 -> 290
12:57:22.409 -> 283
12:57:22.409 -> 278
12:57:22.409 -> 287
12:57:22.449 -> 296
12:57:22.449 -> 287
12:57:22.449 -> 283
12:57:22.449 -> 293
12:57:22.449 -> 297
12:57:22.449 -> 286
12:57:22.449 -> 283
12:57:22.449 -> 294
12:57:22.489 -> 298
12:57:22.489 -> 288
12:57:22.489 -> 285
12:57:22.489 -> 295
12:57:22.489 -> 297
12:57:22.489 -> 287
12:57:22.489 -> 286
12:57:22.529 -> 299
12:57:22.529 -> 299
12:57:22.529 -> 288
12:57:22.529 -> 289
12:57:22.529 -> 301
12:57:22.529 -> 299
12:57:22.529 -> 287
12:57:22.529 -> 289
12:57:22.569 -> 302
12:57:22.569 -> 299
12:57:22.569 -> 289
12:57:22.569 -> 293
12:57:22.569 -> 304
12:57:22.569 -> 299
12:57:22.569 -> 289
12:57:22.569 -> 296
12:57:22.609 -> 308
12:57:22.609 -> 302
12:57:22.609 -> 293
12:57:22.609 -> 300
12:57:22.609 -> 311
12:57:22.609 -> 295
12:57:22.609 -> 306
12:57:22.649 -> 314
12:57:22.649 -> 304
12:57:22.649 -> 299
12:57:22.649 -> 310
12:57:22.649 -> 316
12:57:22.649 -> 306
12:57:22.649 -> 303
12:57:22.649 -> 313
12:57:22.689 -> 317
12:57:22.689 -> 306
12:57:22.689 -> 305
12:57:22.689 -> 317
12:57:22.689 -> 320
12:57:22.689 -> 310
12:57:22.689 -> 311
12:57:22.729 -> 324
12:57:22.729 -> 325
12:57:22.729 -> 315
12:57:22.729 -> 318
12:57:22.729 -> 331
12:57:22.729 -> 329
12:57:22.729 -> 319
12:57:22.729 -> 325
12:57:22.769 -> 340
12:57:22.769 -> 340
12:57:22.769 -> 328
12:57:22.769 -> 328
12:57:22.769 -> 336
12:57:22.769 -> 325
12:57:22.769 -> 314
12:57:22.769 -> 317
12:57:22.809 -> 326
12:57:22.809 -> 320
12:57:22.809 -> 312
12:57:22.809 -> 320
12:57:22.809 -> 331
12:57:22.809 -> 322
12:57:22.809 -> 314
12:57:22.849 -> 322
12:57:22.849 -> 330
12:57:22.849 -> 319
12:57:22.849 -> 310
12:57:22.849 -> 320
12:57:22.849 -> 336
12:57:22.849 -> 348
12:57:22.849 -> 379
12:57:22.889 -> 425
12:57:22.889 -> 437
12:57:22.889 -> 403
12:57:22.889 -> 369
12:57:22.889 -> 348
12:57:22.889 -> 304
12:57:22.889 -> 279
12:57:22.889 -> 300
12:57:22.929 -> 326
12:57:22.929 -> 330
12:57:22.929 -> 320
12:57:22.929 -> 322
12:57:22.929 -> 333
12:57:22.929 -> 332
12:57:22.929 -> 322
12:57:22.929 -> 324
12:57:22.969 -> 332
12:57:22.969 -> 321
12:57:22.969 -> 326
12:57:22.969 -> 338
12:57:22.969 -> 333
12:57:22.969 -> 325
12:57:22.969 -> 331
12:57:23.009 -> 341
12:57:23.009 -> 335
12:57:23.009 -> 327
12:57:23.009 -> 335
12:57:23.009 -> 344
12:57:23.009 -> 337
12:57:23.009 -> 330
12:57:23.009 -> 339
12:57:23.049 -> 348
12:57:23.049 -> 339
12:57:23.049 -> 335
12:57:23.049 -> 345
12:57:23.049 -> 353
12:57:23.049 -> 344
12:57:23.049 -> 341
12:57:23.049 -> 353
12:57:23.089 -> 360
12:57:23.089 -> 352
12:57:23.089 -> 351
12:57:23.089 -> 364
12:57:23.089 -> 368
12:57:23.089 -> 360
12:57:23.089 -> 360
12:57:23.089 -> 373
12:57:23.129 -> 376
12:57:23.129 -> 366
12:57:23.129 -> 367
12:57:23.129 -> 378
12:57:23.129 -> 377
12:57:23.129 -> 364
12:57:23.129 -> 361
12:57:23.169 -> 367
12:57:23.169 -> 357
12:57:23.169 -> 338
12:57:23.169 -> 336
12:57:23.169 -> 341
12:57:23.169 -> 330
12:57:23.169 -> 316
12:57:23.169 -> 318
12:57:23.209 -> 325
12:57:23.209 -> 317
12:57:23.209 -> 305
12:57:23.209 -> 309
12:57:23.209 -> 318
12:57:23.209 -> 310
12:57:23.209 -> 302
12:57:23.249 -> 309
12:57:23.249 -> 317
12:57:23.249 -> 308
12:57:23.249 -> 301
12:57:23.249 -> 310
12:57:23.249 -> 317
12:57:23.249 -> 306
12:57:23.249 -> 301
12:57:23.289 -> 311
12:57:23.289 -> 317
12:57:23.289 -> 307
12:57:23.289 -> 314
12:57:23.289 -> 317
12:57:23.289 -> 306
12:57:23.289 -> 304
12:57:23.289 -> 315
12:57:23.329 -> 316
12:57:23.329 -> 304
12:57:23.329 -> 304
12:57:23.329 -> 315
12:57:23.329 -> 314
12:57:23.329 -> 304
12:57:23.329 -> 306
12:57:23.369 -> 318
12:57:23.369 -> 315
12:57:23.369 -> 304
12:57:23.369 -> 307
12:57:23.369 -> 318
12:57:23.369 -> 314
12:57:23.369 -> 305
12:57:23.369 -> 309
12:57:23.409 -> 320
12:57:23.409 -> 314
12:57:23.409 -> 305
12:57:23.409 -> 312
12:57:23.409 -> 322
12:57:23.409 -> 314
12:57:23.409 -> 306
12:57:23.409 -> 313
12:57:23.449 -> 321
12:57:23.449 -> 312
12:57:23.449 -> 305
12:57:23.449 -> 315
12:57:23.449 -> 322
12:57:23.449 -> 311
12:57:23.449 -> 306
12:57:23.449 -> 316
12:57:23.489 -> 321
12:57:23.489 -> 309
12:57:23.489 -> 306
12:57:23.489 -> 316
12:57:23.489 -> 320
12:57:23.489 -> 308
12:57:23.489 -> 307
12:57:23.529 -> 318
12:57:23.529 -> 321
12:57:23.529 -> 311
12:57:23.529 -> 310
12:57:23.529 -> 320
12:57:23.529 -> 320
12:57:23.529 -> 310
12:57:23.529 -> 311
12:57:23.569 -> 322
12:57:23.569 -> 319
12:57:23.569 -> 308
12:57:23.569 -> 311
12:57:23.569 -> 321
12:57:23.569 -> 316
12:57:23.569 -> 307
12:57:23.569 -> 311
12:57:23.609 -> 321
12:57:23.609 -> 315
12:57:23.609 -> 306
12:57:23.609 -> 312
12:57:23.609 -> 322
12:57:23.609 -> 306
12:57:23.609 -> 313
12:57:23.609 -> 321
12:57:23.649 -> 313
12:57:23.649 -> 306
12:57:23.649 -> 314
12:57:23.649 -> 322
12:57:23.649 -> 312
12:57:23.649 -> 307
12:57:23.649 -> 316
12:57:23.689 -> 322
12:57:23.689 -> 310
12:57:23.689 -> 307
12:57:23.689 -> 317
12:57:23.689 -> 321
12:57:23.689 -> 310
12:57:23.689 -> 307
12:57:23.729 -> 319
12:57:23.729 -> 321
12:57:23.729 -> 309
12:57:23.729 -> 309
12:57:23.729 -> 320
12:57:23.729 -> 320
12:57:23.729 -> 309
12:57:23.729 -> 310
12:57:23.769 -> 321
12:57:23.769 -> 320
12:57:23.769 -> 309
12:57:23.769 -> 310
12:57:23.769 -> 322
12:57:23.769 -> 319
12:57:23.769 -> 309
12:57:23.769 -> 313
12:57:23.809 -> 323
12:57:23.809 -> 318
12:57:23.809 -> 308
12:57:23.809 -> 313
12:57:23.809 -> 324
12:57:23.809 -> 317
12:57:23.809 -> 311
12:57:23.809 -> 320
12:57:23.849 -> 329
12:57:23.849 -> 320
12:57:23.849 -> 315
12:57:23.849 -> 324
12:57:23.849 -> 332
12:57:23.849 -> 324
12:57:23.849 -> 320
12:57:23.889 -> 331
12:57:23.889 -> 341
12:57:23.889 -> 330
12:57:23.889 -> 321
12:57:23.889 -> 327
12:57:23.889 -> 324
12:57:23.889 -> 310
12:57:23.889 -> 305
12:57:23.929 -> 316
12:57:23.929 -> 320
12:57:23.929 -> 309
12:57:23.929 -> 307
12:57:23.929 -> 318
12:57:23.929 -> 318
12:57:23.929 -> 306
12:57:23.929 -> 308
12:57:23.969 -> 316
12:57:23.969 -> 301
12:57:23.969 -> 301
12:57:23.969 -> 322
12:57:23.969 -> 338
12:57:23.969 -> 365
12:57:23.969 -> 413
12:57:23.969 -> 448
12:57:24.009 -> 432
12:57:24.009 -> 388
12:57:24.009 -> 352
12:57:24.009 -> 313
12:57:24.009 -> 279
12:57:24.009 -> 283
12:57:24.009 -> 304
12:57:24.049 -> 320
12:57:24.049 -> 315
12:57:24.049 -> 307
12:57:24.049 -> 314
12:57:24.049 -> 322
12:57:24.049 -> 314
12:57:24.049 -> 309
12:57:24.049 -> 317
12:57:24.089 -> 325
12:57:24.089 -> 315
12:57:24.089 -> 309
12:57:24.089 -> 319
12:57:24.089 -> 325
12:57:24.089 -> 314
12:57:24.089 -> 312
12:57:24.089 -> 324
12:57:24.129 -> 328
12:57:24.129 -> 317
12:57:24.129 -> 315
12:57:24.129 -> 327
12:57:24.129 -> 330
12:57:24.129 -> 319
12:57:24.129 -> 318
12:57:24.129 -> 331
12:57:24.169 -> 331
12:57:24.169 -> 321
12:57:24.169 -> 323
12:57:24.169 -> 335
12:57:24.169 -> 333
12:57:24.169 -> 325
12:57:24.169 -> 331
12:57:24.209 -> 345
12:57:24.209 -> 342
12:57:24.209 -> 334
12:57:24.209 -> 342
12:57:24.209 -> 354
12:57:24.209 -> 352
12:57:24.209 -> 345
12:57:24.249 -> 354
12:57:24.249 -> 365
12:57:24.249 -> 357
12:57:24.249 -> 351
12:57:24.249 -> 360
12:57:24.249 -> 367
12:57:24.249 -> 357
12:57:24.249 -> 348
12:57:24.289 -> 353
12:57:24.289 -> 354
12:57:24.289 -> 337
12:57:24.289 -> 328
12:57:24.289 -> 328
12:57:24.289 -> 312
12:57:24.289 -> 303
12:57:24.289 -> 309
12:57:24.329 -> 310
12:57:24.329 -> 297
12:57:24.329 -> 293
12:57:24.329 -> 302
12:57:24.329 -> 302
12:57:24.329 -> 291
12:57:24.329 -> 291
12:57:24.369 -> 303
12:57:24.369 -> 302
12:57:24.369 -> 290
12:57:24.369 -> 292
12:57:24.369 -> 303
12:57:24.369 -> 302
12:57:24.369 -> 291
12:57:24.369 -> 294
12:57:24.409 -> 306
12:57:24.409 -> 301
12:57:24.409 -> 292
12:57:24.409 -> 297
12:57:24.409 -> 308
12:57:24.409 -> 301
12:57:24.409 -> 290
12:57:24.409 -> 298
12:57:24.449 -> 309
12:57:24.449 -> 301
12:57:24.449 -> 293
12:57:24.449 -> 301
12:57:24.449 -> 308
12:57:24.449 -> 299
12:57:24.449 -> 293
12:57:24.449 -> 301
12:57:24.489 -> 309
12:57:24.489 -> 299
12:57:24.489 -> 293
12:57:24.489 -> 304
12:57:24.489 -> 310
12:57:24.489 -> 300
12:57:24.489 -> 295
12:57:24.489 -> 307
12:57:24.529 -> 310
12:57:24.529 -> 298
12:57:24.529 -> 296
12:57:24.529 -> 309
12:57:24.529 -> 312
12:57:24.529 -> 301
12:57:24.529 -> 300
12:57:24.569 -> 311
12:57:24.569 -> 312
12:57:24.569 -> 300
12:57:24.569 -> 302
12:57:24.569 -> 313
12:57:24.569 -> 310
12:57:24.569 -> 299
12:57:24.569 -> 302
12:57:24.609 -> 315
12:57:24.609 -> 311
12:57:24.609 -> 300
12:57:24.609 -> 304
12:57:24.609 -> 313
12:57:24.609 -> 299
12:57:24.609 -> 304
12:57:24.609 -> 314
12:57:24.649 -> 307
12:57:24.649 -> 298
12:57:24.649 -> 306
12:57:24.649 -> 315
12:57:24.649 -> 306
12:57:24.649 -> 299
12:57:24.649 -> 307
12:57:24.689 -> 314
12:57:24.689 -> 304
12:57:24.689 -> 297
12:57:24.689 -> 306
12:57:24.689 -> 312
12:57:24.689 -> 301
12:57:24.689 -> 297
12:57:24.689 -> 307
12:57:24.729 -> 310
12:57:24.729 -> 299
12:57:24.729 -> 295
12:57:24.729 -> 306
12:57:24.729 -> 307
12:57:24.729 -> 297
12:57:24.729 -> 295
12:57:24.769 -> 306
12:57:24.769 -> 307
12:57:24.769 -> 295
12:57:24.769 -> 295
12:57:24.769 -> 307
12:57:24.769 -> 304
12:57:24.769 -> 292
12:57:24.769 -> 293
12:57:24.809 -> 304
12:57:24.809 -> 301
12:57:24.809 -> 290
12:57:24.809 -> 293
12:57:24.809 -> 304
12:57:24.809 -> 299
12:57:24.809 -> 288
12:57:24.809 -> 293
12:57:24.849 -> 302
12:57:24.849 -> 295
12:57:24.849 -> 285
12:57:24.849 -> 291
12:57:24.849 -> 299
12:57:24.849 -> 290
12:57:24.849 -> 281
12:57:24.849 -> 290
12:57:24.889 -> 300
12:57:24.889 -> 294
12:57:24.889 -> 289
12:57:24.889 -> 302
12:57:24.889 -> 310
12:57:24.889 -> 298
12:57:24.889 -> 292
12:57:24.929 -> 303
12:57:24.929 -> 310
12:57:24.929 -> 298
12:57:24.929 -> 293
12:57:24.929 -> 302
12:57:24.929 -> 298
12:57:24.929 -> 281
12:57:24.929 -> 279
12:57:24.969 -> 292
12:57:24.969 -> 280
12:57:24.969 -> 280
12:57:24.969 -> 294
12:57:24.969 -> 295
12:57:24.969 -> 285
12:57:24.969 -> 285
12:57:24.969 -> 293
12:57:25.009 -> 286
12:57:25.009 -> 280
12:57:25.009 -> 300
12:57:25.009 -> 341
12:57:25.009 -> 374
12:57:25.009 -> 395
12:57:25.009 -> 396
12:57:25.049 -> 380
12:57:25.049 -> 341
12:57:25.049 -> 293
12:57:25.049 -> 258
12:57:25.049 -> 270
12:57:25.049 -> 285
12:57:25.049 -> 287
12:57:25.049 -> 297
12:57:25.089 -> 308
12:57:25.089 -> 301
12:57:25.089 -> 295
12:57:25.089 -> 303
12:57:25.089 -> 312
12:57:25.089 -> 303
12:57:25.089 -> 298
12:57:25.089 -> 308
12:57:25.129 -> 314
12:57:25.129 -> 304
12:57:25.129 -> 302
12:57:25.129 -> 314
12:57:25.129 -> 318
12:57:25.129 -> 307
12:57:25.129 -> 306
12:57:25.129 -> 319
12:57:25.169 -> 321
12:57:25.169 -> 311
12:57:25.169 -> 314
12:57:25.169 -> 327
12:57:25.169 -> 327
12:57:25.169 -> 316
12:57:25.169 -> 319
12:57:25.209 -> 332
12:57:25.209 -> 330
12:57:25.209 -> 320
12:57:25.209 -> 327
12:57:25.209 -> 341
12:57:25.209 -> 339
12:57:25.209 -> 331
12:57:25.209 -> 339
12:57:25.249 -> 353
12:57:25.249 -> 350
12:57:25.249 -> 344
12:57:25.249 -> 354
12:57:25.249 -> 367
12:57:25.249 -> 362
12:57:25.249 -> 356
12:57:25.249 -> 365
12:57:25.289 -> 374
12:57:25.289 -> 365
12:57:25.289 -> 366
12:57:25.289 -> 371
12:57:25.289 -> 357
12:57:25.289 -> 347
12:57:25.289 -> 351
12:57:25.329 -> 351
12:57:25.329 -> 334
12:57:25.329 -> 324
12:57:25.329 -> 330
12:57:25.329 -> 329
12:57:25.329 -> 315
12:57:25.329 -> 310
12:57:25.329 -> 318
12:57:25.369 -> 319
12:57:25.369 -> 307
12:57:25.369 -> 306
12:57:25.369 -> 317
12:57:25.369 -> 319
12:57:25.369 -> 313
12:57:25.369 -> 307
12:57:25.409 -> 312
12:57:25.409 -> 310
12:57:25.409 -> 302
12:57:25.409 -> 308
12:57:25.409 -> 320
12:57:25.409 -> 316
12:57:25.409 -> 308
12:57:25.409 -> 315
12:57:25.449 -> 325
12:57:25.449 -> 317
12:57:25.449 -> 311
12:57:25.449 -> 317
12:57:25.449 -> 328
12:57:25.449 -> 320
12:57:25.449 -> 312
12:57:25.449 -> 318
12:57:25.489 -> 326
12:57:25.489 -> 317
12:57:25.489 -> 310
12:57:25.489 -> 318
12:57:25.489 -> 325
12:57:25.489 -> 316
12:57:25.489 -> 310
12:57:25.489 -> 321
12:57:25.529 -> 325
12:57:25.529 -> 314
12:57:25.529 -> 309
12:57:25.529 -> 321
12:57:25.529 -> 325
12:57:25.529 -> 314
12:57:25.529 -> 310
12:57:25.569 -> 322
12:57:25.569 -> 325
12:57:25.569 -> 315
12:57:25.569 -> 315
12:57:25.569 -> 326
12:57:25.569 -> 326
12:57:25.569 -> 313
12:57:25.569 -> 317
12:57:25.609 -> 329
12:57:25.609 -> 326
12:57:25.609 -> 315
12:57:25.609 -> 317
12:57:25.609 -> 329
12:57:25.609 -> 316
12:57:25.609 -> 320
12:57:25.609 -> 331
12:57:25.649 -> 326
12:57:25.649 -> 316
12:57:25.649 -> 322
12:57:25.649 -> 332
12:57:25.649 -> 324
12:57:25.649 -> 317
12:57:25.649 -> 322
12:57:25.649 -> 332
12:57:25.689 -> 323
12:57:25.689 -> 317
12:57:25.689 -> 325
12:57:25.689 -> 333
12:57:25.689 -> 323
12:57:25.689 -> 317
12:57:25.689 -> 327
12:57:25.729 -> 332
12:57:25.729 -> 321
12:57:25.729 -> 319
12:57:25.729 -> 332
12:57:25.729 -> 337
12:57:25.729 -> 325
12:57:25.729 -> 324
12:57:25.729 -> 338
12:57:25.769 -> 341
12:57:25.769 -> 330
12:57:25.769 -> 330
12:57:25.769 -> 342
12:57:25.769 -> 348
12:57:25.769 -> 338
12:57:25.769 -> 335
12:57:25.809 -> 342
12:57:25.809 -> 335
12:57:25.809 -> 320
12:57:25.809 -> 321
12:57:25.809 -> 331
12:57:25.809 -> 328
12:57:25.809 -> 318
12:57:25.809 -> 322
12:57:25.849 -> 333
12:57:25.849 -> 328
12:57:25.849 -> 318
12:57:25.849 -> 324
12:57:25.849 -> 333
12:57:25.849 -> 325
12:57:25.849 -> 317
12:57:25.849 -> 322
12:57:25.889 -> 333
12:57:25.889 -> 337
12:57:25.889 -> 358
12:57:25.889 -> 398
12:57:25.889 -> 428
12:57:25.889 -> 407
12:57:25.889 -> 375
12:57:25.929 -> 357
12:57:25.929 -> 331
12:57:25.929 -> 285
12:57:25.929 -> 283
12:57:25.929 -> 321
12:57:25.929 -> 342
12:57:25.929 -> 332
12:57:25.929 -> 331
12:57:25.969 -> 349
12:57:25.969 -> 338
12:57:25.969 -> 337
12:57:25.969 -> 349
12:57:25.969 -> 350
12:57:25.969 -> 338
12:57:25.969 -> 337
12:57:25.969 -> 349
12:57:26.009 -> 348
12:57:26.009 -> 338
12:57:26.009 -> 341
12:57:26.009 -> 353
12:57:26.009 -> 350
12:57:26.009 -> 340
12:57:26.009 -> 345
12:57:26.009 -> 357
12:57:26.049 -> 353
12:57:26.049 -> 343
12:57:26.049 -> 350
12:57:26.049 -> 362
12:57:26.049 -> 357
12:57:26.049 -> 350
12:57:26.049 -> 358
12:57:26.049 -> 368
12:57:26.089 -> 360
12:57:26.089 -> 355
12:57:26.089 -> 366
12:57:26.089 -> 377
12:57:26.089 -> 370
12:57:26.089 -> 366
12:57:26.089 -> 378
12:57:26.129 -> 387
12:57:26.129 -> 380
12:57:26.129 -> 377
12:57:26.129 -> 388
12:57:26.129 -> 393
12:57:26.129 -> 383
12:57:26.129 -> 380
12:57:26.129 -> 391
12:57:26.169 -> 394
12:57:26.169 -> 381
12:57:26.169 -> 375
12:57:26.169 -> 382
12:57:26.169 -> 377
12:57:26.169 -> 359
12:57:26.169 -> 352
12:57:26.169 -> 357
12:57:26.209 -> 351
12:57:26.209 -> 334
12:57:26.209 -> 332
12:57:26.209 -> 340
12:57:26.209 -> 334
12:57:26.209 -> 321
12:57:26.209 -> 322
12:57:26.249 -> 333
12:57:26.249 -> 328
12:57:26.249 -> 317
12:57:26.249 -> 321
12:57:26.249 -> 331
12:57:26.249 -> 325
12:57:26.249 -> 316
12:57:26.289 -> 322
12:57:26.289 -> 332
12:57:26.289 -> 324
12:57:26.289 -> 325
12:57:26.289 -> 333
12:57:26.289 -> 325
12:57:26.289 -> 319
12:57:26.289 -> 328
12:57:26.329 -> 335
12:57:26.329 -> 325
12:57:26.329 -> 321
12:57:26.329 -> 330
12:57:26.329 -> 335
12:57:26.329 -> 323
12:57:26.329 -> 320
12:57:26.329 -> 331
12:57:26.369 -> 334
12:57:26.369 -> 323
12:57:26.369 -> 320
12:57:26.369 -> 331
12:57:26.369 -> 332
12:57:26.369 -> 321
12:57:26.369 -> 320
12:57:26.369 -> 331
12:57:26.409 -> 330
12:57:26.409 -> 318
12:57:26.409 -> 318
12:57:26.409 -> 329
12:57:26.409 -> 327
12:57:26.409 -> 316
12:57:26.409 -> 319
12:57:26.449 -> 329
12:57:26.449 -> 324
12:57:26.449 -> 313
12:57:26.449 -> 318
12:57:26.449 -> 328
12:57:26.449 -> 322
12:57:26.449 -> 314
12:57:26.449 -> 320
12:57:26.489 -> 329
12:57:26.489 -> 320
12:57:26.489 -> 312
12:57:26.489 -> 320
12:57:26.489 -> 330
12:57:26.489 -> 322
12:57:26.489 -> 315
12:57:26.489 -> 323
12:57:26.529 -> 329
12:57:26.529 -> 319
12:57:26.529 -> 314
12:57:26.529 -> 324
12:57:26.529 -> 328
12:57:26.529 -> 317
12:57:26.529 -> 314
12:57:26.529 -> 325
12:57:26.569 -> 328
12:57:26.569 -> 317
12:57:26.569 -> 315
12:57:26.569 -> 326
12:57:26.569 -> 328
12:57:26.569 -> 317
12:57:26.569 -> 318
12:57:26.609 -> 329
12:57:26.609 -> 326
12:57:26.609 -> 315
12:57:26.609 -> 316
12:57:26.609 -> 329
12:57:26.609 -> 316
12:57:26.609 -> 319
12:57:26.609 -> 330
12:57:26.649 -> 325
12:57:26.649 -> 315
12:57:26.649 -> 320
12:57:26.649 -> 334
12:57:26.649 -> 330
12:57:26.649 -> 320
12:57:26.649 -> 326
12:57:26.649 -> 338
12:57:26.689 -> 332
12:57:26.689 -> 323
12:57:26.689 -> 332
12:57:26.689 -> 342
12:57:26.689 -> 337
12:57:26.689 -> 333
12:57:26.689 -> 340
12:57:26.689 -> 345
12:57:26.729 -> 329
12:57:26.729 -> 318
12:57:26.729 -> 324
12:57:26.729 -> 329
12:57:26.729 -> 317
12:57:26.729 -> 314
12:57:26.729 -> 324
12:57:26.769 -> 326
12:57:26.769 -> 312
12:57:26.769 -> 310
12:57:26.769 -> 320
12:57:26.769 -> 323
12:57:26.769 -> 310
12:57:26.769 -> 306
12:57:26.809 -> 313
12:57:26.809 -> 316
12:57:26.809 -> 318
12:57:26.809 -> 344
12:57:26.809 -> 391
12:57:26.809 -> 418
12:57:26.809 -> 402
12:57:26.809 -> 379
12:57:26.849 -> 361
12:57:26.849 -> 321
12:57:26.849 -> 272
12:57:26.849 -> 279
12:57:26.849 -> 311
12:57:26.849 -> 315
12:57:26.849 -> 307
12:57:26.849 -> 314
12:57:26.889 -> 324
12:57:26.889 -> 317
12:57:26.889 -> 308
12:57:26.889 -> 316
12:57:26.889 -> 325
12:57:26.889 -> 318
12:57:26.889 -> 310
12:57:26.889 -> 319
12:57:26.929 -> 327
12:57:26.929 -> 318
12:57:26.929 -> 311
12:57:26.929 -> 320
12:57:26.929 -> 327
12:57:26.929 -> 319
12:57:26.929 -> 315
12:57:26.969 -> 330
12:57:26.969 -> 320
12:57:26.969 -> 318
12:57:26.969 -> 330
12:57:26.969 -> 334
12:57:26.969 -> 323
12:57:26.969 -> 322
12:57:26.969 -> 334
12:57:27.009 -> 336
12:57:27.009 -> 326
12:57:27.009 -> 328
12:57:27.009 -> 342
12:57:27.009 -> 343
12:57:27.009 -> 334
12:57:27.009 -> 339
12:57:27.009 -> 352
12:57:27.049 -> 351
12:57:27.049 -> 343
12:57:27.049 -> 349
12:57:27.049 -> 362
12:57:27.049 -> 359
12:57:27.049 -> 350
12:57:27.049 -> 355
12:57:27.049 -> 366
12:57:27.089 -> 358
12:57:27.089 -> 349
12:57:27.089 -> 352
12:57:27.089 -> 357
12:57:27.089 -> 344
12:57:27.089 -> 330
12:57:27.089 -> 332
12:57:27.129 -> 335
12:57:27.129 -> 320
12:57:27.129 -> 308
12:57:27.129 -> 313
12:57:27.129 -> 317
12:57:27.129 -> 304
12:57:27.129 -> 296
12:57:27.129 -> 307
12:57:27.169 -> 310
12:57:27.169 -> 298
12:57:27.169 -> 294
12:57:27.169 -> 305
12:57:27.169 -> 309
12:57:27.169 -> 297
12:57:27.169 -> 295
12:57:27.169 -> 308
12:57:27.209 -> 309
12:57:27.209 -> 298
12:57:27.209 -> 297
12:57:27.209 -> 309
12:57:27.209 -> 308
12:57:27.209 -> 299
12:57:27.209 -> 302
12:57:27.249 -> 313
12:57:27.249 -> 311
12:57:27.249 -> 301
12:57:27.249 -> 305
12:57:27.249 -> 317
12:57:27.249 -> 312
12:57:27.249 -> 302
12:57:27.249 -> 307
12:57:27.289 -> 318
12:57:27.289 -> 312
12:57:27.289 -> 310
12:57:27.289 -> 321
12:57:27.289 -> 312
12:57:27.289 -> 304
12:57:27.289 -> 312
12:57:27.329 -> 320
12:57:27.329 -> 312
12:57:27.329 -> 305
12:57:27.329 -> 314
12:57:27.329 -> 321
12:57:27.329 -> 311
12:57:27.329 -> 306
12:57:27.329 -> 316
12:57:27.369 -> 322
12:57:27.369 -> 310
12:57:27.369 -> 308
12:57:27.369 -> 319
12:57:27.369 -> 321
12:57:27.369 -> 311
12:57:27.369 -> 309
12:57:27.369 -> 320
12:57:27.409 -> 321
12:57:27.409 -> 311
12:57:27.409 -> 311
12:57:27.409 -> 323
12:57:27.409 -> 322
12:57:27.409 -> 310
12:57:27.409 -> 312
12:57:27.449 -> 323
12:57:27.449 -> 321
12:57:27.449 -> 309
12:57:27.449 -> 314
12:57:27.449 -> 325
12:57:27.449 -> 321
12:57:27.449 -> 311
12:57:27.449 -> 316
12:57:27.489 -> 327
12:57:27.489 -> 320
12:57:27.489 -> 311
12:57:27.489 -> 319
12:57:27.489 -> 328
12:57:27.489 -> 320
12:57:27.489 -> 313
12:57:27.489 -> 320
12:57:27.529 -> 328
12:57:27.529 -> 319
12:57:27.529 -> 313
12:57:27.529 -> 321
12:57:27.529 -> 327
12:57:27.529 -> 318
12:57:27.529 -> 312
12:57:27.529 -> 323
12:57:27.579 -> 329
12:57:27.579 -> 317
12:57:27.579 -> 314
12:57:27.579 -> 325
12:57:27.579 -> 329
12:57:27.579 -> 317
12:57:27.579 -> 315
12:57:27.579 -> 326
12:57:27.579 -> 329
12:57:27.619 -> 318
12:57:27.619 -> 317
12:57:27.619 -> 329
12:57:27.619 -> 318
12:57:27.619 -> 319
12:57:27.619 -> 329
12:57:27.619 -> 326
12:57:27.619 -> 316
12:57:27.659 -> 319
12:57:27.659 -> 330
12:57:27.659 -> 325
12:57:27.659 -> 314
12:57:27.659 -> 319
12:57:27.659 -> 330
12:57:27.659 -> 323
12:57:27.659 -> 314
12:57:27.699 -> 321
12:57:27.699 -> 330
12:57:27.699 -> 322
12:57:27.699 -> 314
12:57:27.699 -> 323
12:57:27.699 -> 333
12:57:27.699 -> 328
12:57:27.739 -> 323
12:57:27.739 -> 330
12:57:27.739 -> 336
12:57:27.739 -> 330
12:57:27.739 -> 328
12:57:27.739 -> 337
12:57:27.739 -> 344
12:57:27.739 -> 335
12:57:27.779 -> 333
12:57:27.779 -> 341
12:57:27.779 -> 342
12:57:27.779 -> 327
12:57:27.779 -> 318
12:57:27.779 -> 324
12:57:27.779 -> 325
12:57:27.779 -> 313
12:57:27.819 -> 312
12:57:27.819 -> 323
12:57:27.819 -> 323
12:57:27.819 -> 311
12:57:27.819 -> 310
12:57:27.819 -> 321
12:57:27.819 -> 315
12:57:27.819 -> 301
12:57:27.859 -> 309
12:57:27.859 -> 334
12:57:27.859 -> 358
12:57:27.859 -> 386
12:57:27.859 -> 424
12:57:27.859 -> 433
12:57:27.859 -> 400
12:57:27.899 -> 358
12:57:27.899 -> 324
12:57:27.899 -> 291
12:57:27.899 -> 288
12:57:27.899 -> 297
12:57:27.899 -> 314
12:57:27.899 -> 326
12:57:27.899 -> 318
12:57:27.939 -> 308
12:57:27.939 -> 317
12:57:27.939 -> 325
12:57:27.939 -> 315
12:57:27.939 -> 310
12:57:27.939 -> 326
12:57:27.939 -> 315
12:57:27.939 -> 312
12:57:27.979 -> 322
12:57:27.979 -> 326
12:57:27.979 -> 315
12:57:27.979 -> 311
12:57:27.979 -> 324
12:57:27.979 -> 327
12:57:27.979 -> 317
12:57:28.019 -> 317
12:57:28.019 -> 329
12:57:28.019 -> 328
12:57:28.019 -> 317
12:57:28.019 -> 319
12:57:28.019 -> 332
12:57:28.019 -> 332
12:57:28.019 -> 322
12:57:28.059 -> 325
12:57:28.059 -> 337
12:57:28.059 -> 334
12:57:28.059 -> 326
12:57:28.059 -> 334
12:57:28.059 -> 347
12:57:28.059 -> 344
12:57:28.099 -> 337
12:57:28.099 -> 346
12:57:28.099 -> 359
12:57:28.099 -> 354
12:57:28.099 -> 347
12:57:28.099 -> 356
12:57:28.099 -> 367
12:57:28.099 -> 359
12:57:28.139 -> 352
12:57:28.139 -> 360
12:57:28.139 -> 367
12:57:28.139 -> 355
12:57:28.139 -> 346
12:57:28.139 -> 350
12:57:28.139 -> 351
12:57:28.139 -> 334
12:57:28.179 -> 323
12:57:28.179 -> 328
12:57:28.179 -> 326
12:57:28.179 -> 309
12:57:28.179 -> 304
12:57:28.179 -> 312
12:57:28.179 -> 312
12:57:28.219 -> 298
12:57:28.219 -> 295
12:57:28.219 -> 306
12:57:28.219 -> 306
12:57:28.219 -> 295
12:57:28.219 -> 296
12:57:28.219 -> 308
12:57:28.219 -> 306
12:57:28.259 -> 295
12:57:28.259 -> 296
12:57:28.259 -> 309
12:57:28.259 -> 306
12:57:28.259 -> 296
12:57:28.259 -> 300
12:57:28.259 -> 312
12:57:28.259 -> 308
12:57:28.299 -> 303
12:57:28.299 -> 314
12:57:28.299 -> 307
12:57:28.299 -> 298
12:57:28.299 -> 305
12:57:28.299 -> 314
12:57:28.299 -> 305
12:57:28.299 -> 298
12:57:28.339 -> 305
12:57:28.339 -> 314
12:57:28.339 -> 304
12:57:28.339 -> 298
12:57:28.339 -> 308
12:57:28.339 -> 317
12:57:28.339 -> 306
12:57:28.339 -> 301
12:57:28.379 -> 311
12:57:28.379 -> 315
12:57:28.379 -> 304
12:57:28.379 -> 300
12:57:28.379 -> 311
12:57:28.379 -> 315
12:57:28.379 -> 304
12:57:28.419 -> 302
12:57:28.419 -> 314
12:57:28.419 -> 315
12:57:28.419 -> 303
12:57:28.419 -> 303
12:57:28.419 -> 316
12:57:28.419 -> 315
12:57:28.419 -> 303
12:57:28.459 -> 305
12:57:28.459 -> 317
12:57:28.459 -> 314
12:57:28.459 -> 303
12:57:28.459 -> 307
12:57:28.459 -> 320
12:57:28.459 -> 316
12:57:28.459 -> 305
12:57:28.499 -> 309
12:57:28.499 -> 320
12:57:28.499 -> 314
12:57:28.499 -> 304
12:57:28.499 -> 311
12:57:28.499 -> 322
12:57:28.499 -> 315
12:57:28.539 -> 306
12:57:28.539 -> 314
12:57:28.539 -> 323
12:57:28.539 -> 315
12:57:28.539 -> 308
12:57:28.539 -> 317
12:57:28.539 -> 323
12:57:28.539 -> 314
12:57:28.579 -> 309
12:57:28.579 -> 319
12:57:28.579 -> 323
12:57:28.579 -> 312
12:57:28.579 -> 309
12:57:28.579 -> 320
12:57:28.579 -> 323
12:57:28.619 -> 312
12:57:28.619 -> 309
12:57:28.619 -> 320
12:57:28.619 -> 311
12:57:28.619 -> 311
12:57:28.619 -> 322
12:57:28.619 -> 321
12:57:28.619 -> 310
12:57:28.659 -> 312
12:57:28.659 -> 324
12:57:28.659 -> 321
12:57:28.659 -> 309
12:57:28.659 -> 312
12:57:28.659 -> 323
12:57:28.659 -> 319
12:57:28.659 -> 308
12:57:28.699 -> 312
12:57:28.699 -> 322
12:57:28.699 -> 316
12:57:28.699 -> 307
12:57:28.699 -> 313
12:57:28.699 -> 324
12:57:28.699 -> 315
12:57:28.739 -> 311
12:57:28.739 -> 322
12:57:28.739 -> 333
12:57:28.739 -> 326
12:57:28.739 -> 319
12:57:28.739 -> 325
12:57:28.739 -> 332
12:57:28.739 -> 323
12:57:28.779 -> 318
12:57:28.779 -> 327
12:57:28.779 -> 329
12:57:28.779 -> 315
12:57:28.779 -> 304
12:57:28.779 -> 308
12:57:28.779 -> 311
12:57:28.779 -> 299
12:57:28.819 -> 296
12:57:28.819 -> 308
12:57:28.819 -> 309
12:57:28.819 -> 296
12:57:28.819 -> 296
12:57:28.819 -> 308
12:57:28.819 -> 304
12:57:28.819 -> 290
12:57:28.859 -> 296
12:57:28.859 -> 322
12:57:28.859 -> 351
12:57:28.859 -> 377
12:57:28.859 -> 405
12:57:28.859 -> 407
12:57:28.859 -> 375
12:57:28.859 -> 332
12:57:28.899 -> 296
12:57:28.899 -> 270
12:57:28.899 -> 273
12:57:28.899 -> 284
12:57:28.899 -> 298
12:57:28.899 -> 310
12:57:28.899 -> 304
12:57:28.939 -> 296
12:57:28.939 -> 302
12:57:28.939 -> 311
12:57:28.939 -> 301
12:57:28.939 -> 295
12:57:28.939 -> 311
12:57:28.939 -> 300
12:57:28.939 -> 295
12:57:28.979 -> 306
12:57:28.979 -> 312
12:57:28.979 -> 301
12:57:28.979 -> 296
12:57:28.979 -> 307
12:57:28.979 -> 313
12:57:28.979 -> 304
12:57:28.979 -> 302
12:57:29.019 -> 314
12:57:29.019 -> 316
12:57:29.019 -> 305
12:57:29.019 -> 307
12:57:29.019 -> 322
12:57:29.019 -> 320
12:57:29.019 -> 307
12:57:29.059 -> 309
12:57:29.059 -> 323
12:57:29.059 -> 324
12:57:29.059 -> 314
12:57:29.059 -> 318
12:57:29.059 -> 331
12:57:29.059 -> 331
12:57:29.059 -> 325
12:57:29.099 -> 331
12:57:29.099 -> 344
12:57:29.099 -> 342
12:57:29.099 -> 334
12:57:29.099 -> 341
12:57:29.099 -> 353
12:57:29.099 -> 346
12:57:29.139 -> 337
12:57:29.139 -> 344
12:57:29.139 -> 352
12:57:29.139 -> 340
12:57:29.139 -> 329
12:57:29.139 -> 333
12:57:29.139 -> 339
12:57:29.139 -> 326
12:57:29.179 -> 304
12:57:29.179 -> 300
12:57:29.179 -> 302
12:57:29.179 -> 289
12:57:29.179 -> 281
12:57:29.179 -> 290
12:57:29.179 -> 291
12:57:29.179 -> 278
12:57:29.219 -> 275
12:57:29.219 -> 286
12:57:29.219 -> 287
12:57:29.219 -> 274
12:57:29.219 -> 274
12:57:29.219 -> 288
12:57:29.219 -> 286
12:57:29.259 -> 274
12:57:29.259 -> 276
12:57:29.259 -> 290
12:57:29.259 -> 289
12:57:29.259 -> 278
12:57:29.259 -> 279
12:57:29.259 -> 291
12:57:29.259 -> 287
12:57:29.299 -> 281
12:57:29.299 -> 293
12:57:29.299 -> 287
12:57:29.299 -> 278
12:57:29.299 -> 285
12:57:29.299 -> 297
12:57:29.299 -> 294
12:57:29.299 -> 288
12:57:29.339 -> 286
12:57:29.339 -> 289
12:57:29.339 -> 282
12:57:29.339 -> 277
12:57:29.339 -> 286
12:57:29.339 -> 294
12:57:29.339 -> 284
12:57:29.339 -> 278
12:57:29.379 -> 289
12:57:29.379 -> 296
12:57:29.379 -> 284
12:57:29.379 -> 279
12:57:29.379 -> 291
12:57:29.379 -> 297
12:57:29.379 -> 287
12:57:29.419 -> 284
12:57:29.419 -> 296
12:57:29.419 -> 300
12:57:29.419 -> 287
12:57:29.419 -> 286
12:57:29.419 -> 298
12:57:29.419 -> 300
12:57:29.419 -> 289
12:57:29.459 -> 289
12:57:29.459 -> 301
12:57:29.459 -> 300
12:57:29.459 -> 292
12:57:29.459 -> 301
12:57:29.459 -> 305
12:57:29.459 -> 294
12:57:29.459 -> 285
12:57:29.499 -> 292
12:57:29.499 -> 304
12:57:29.499 -> 301
12:57:29.499 -> 291
12:57:29.499 -> 297
12:57:29.499 -> 307
12:57:29.499 -> 302
12:57:29.499 -> 293
12:57:29.539 -> 301
12:57:29.539 -> 310
12:57:29.539 -> 303
12:57:29.539 -> 295
12:57:29.539 -> 304
12:57:29.539 -> 312
12:57:29.539 -> 303
12:57:29.579 -> 298
12:57:29.579 -> 307
12:57:29.579 -> 313
12:57:29.579 -> 303
12:57:29.579 -> 299
12:57:29.579 -> 317
12:57:29.579 -> 321
12:57:29.579 -> 299
12:57:29.619 -> 292
12:57:29.619 -> 305
12:57:29.619 -> 303
12:57:29.619 -> 303
12:57:29.619 -> 313
12:57:29.619 -> 315
12:57:29.619 -> 308
12:57:29.659 -> 312
12:57:29.659 -> 326
12:57:29.659 -> 324
12:57:29.659 -> 316
12:57:29.659 -> 322
12:57:29.659 -> 333
12:57:29.659 -> 328
12:57:29.659 -> 319
12:57:29.699 -> 324
12:57:29.699 -> 336
12:57:29.699 -> 330
12:57:29.699 -> 317
12:57:29.699 -> 318
12:57:29.699 -> 326
12:57:29.699 -> 308
12:57:29.699 -> 295
12:57:29.739 -> 304
12:57:29.739 -> 318
12:57:29.739 -> 310
12:57:29.739 -> 302
12:57:29.739 -> 309
12:57:29.739 -> 317
12:57:29.739 -> 308
12:57:29.779 -> 300
12:57:29.779 -> 309
12:57:29.779 -> 328
12:57:29.779 -> 345
12:57:29.779 -> 371
12:57:29.779 -> 399
12:57:29.779 -> 393
12:57:29.779 -> 359
12:57:29.819 -> 328
12:57:29.819 -> 307
12:57:29.819 -> 277
12:57:29.819 -> 267
12:57:29.819 -> 291
12:57:29.819 -> 325
12:57:29.819 -> 327
12:57:29.819 -> 306
12:57:29.859 -> 306
12:57:29.859 -> 324
12:57:29.859 -> 325
12:57:29.859 -> 315
12:57:29.859 -> 318
12:57:29.859 -> 330
12:57:29.859 -> 327
12:57:29.859 -> 316
12:57:29.899 -> 319
12:57:29.899 -> 332
12:57:29.899 -> 328
12:57:29.899 -> 319
12:57:29.899 -> 323
12:57:29.899 -> 334
12:57:29.899 -> 327
12:57:29.939 -> 318
12:57:29.939 -> 326
12:57:29.939 -> 337
12:57:29.939 -> 330
12:57:29.939 -> 328
12:57:29.939 -> 342
12:57:29.939 -> 327
12:57:29.939 -> 325
12:57:29.979 -> 338
12:57:29.979 -> 347
12:57:29.979 -> 339
12:57:29.979 -> 337
12:57:29.979 -> 350
12:57:29.979 -> 359
12:57:29.979 -> 352
12:57:29.979 -> 351
12:57:30.019 -> 364
12:57:30.019 -> 372
12:57:30.019 -> 362
12:57:30.019 -> 361
12:57:30.019 -> 373
12:57:30.019 -> 378
12:57:30.019 -> 368
12:57:30.019 -> 367
12:57:30.059 -> 377
12:57:30.059 -> 374
12:57:30.059 -> 359
12:57:30.059 -> 354
12:57:30.059 -> 360
12:57:30.059 -> 358
12:57:30.059 -> 344
12:57:30.099 -> 328
12:57:30.099 -> 327
12:57:30.099 -> 321
12:57:30.099 -> 312
12:57:30.099 -> 313
12:57:30.099 -> 320
12:57:30.099 -> 313
12:57:30.139 -> 304
12:57:30.139 -> 307
12:57:30.139 -> 316
12:57:30.139 -> 308
12:57:30.139 -> 302
12:57:30.139 -> 308
12:57:30.139 -> 317
12:57:30.139 -> 309
12:57:30.179 -> 302
12:57:30.179 -> 313
12:57:30.179 -> 320
12:57:30.179 -> 312
12:57:30.179 -> 311
12:57:30.179 -> 327
12:57:30.179 -> 323
12:57:30.179 -> 306
12:57:30.219 -> 306
12:57:30.219 -> 318
12:57:30.219 -> 323
12:57:30.219 -> 312
12:57:30.219 -> 309
12:57:30.219 -> 322
12:57:30.219 -> 326
12:57:30.219 -> 314
12:57:30.259 -> 313
12:57:30.259 -> 325
12:57:30.259 -> 327
12:57:30.259 -> 315
12:57:30.259 -> 316
12:57:30.259 -> 327
12:57:30.259 -> 326
12:57:30.299 -> 318
12:57:30.299 -> 328
12:57:30.299 -> 325
12:57:30.299 -> 316
12:57:30.299 -> 319
12:57:30.299 -> 329
12:57:30.299 -> 324
12:57:30.299 -> 315
12:57:30.339 -> 322
12:57:30.339 -> 333
12:57:30.339 -> 326
12:57:30.339 -> 317
12:57:30.339 -> 324
12:57:30.339 -> 334
12:57:30.339 -> 327
12:57:30.339 -> 321
12:57:30.379 -> 330
12:57:30.379 -> 339
12:57:30.379 -> 330
12:57:30.379 -> 326
12:57:30.379 -> 338
12:57:30.379 -> 346
12:57:30.379 -> 336
12:57:30.379 -> 332
12:57:30.419 -> 345
12:57:30.419 -> 351
12:57:30.419 -> 340
12:57:30.419 -> 337
12:57:30.419 -> 350
12:57:30.419 -> 357
12:57:30.419 -> 351
12:57:30.459 -> 355
12:57:30.459 -> 366
12:57:30.459 -> 352
12:57:30.459 -> 329
12:57:30.459 -> 330
12:57:30.459 -> 342
12:57:30.459 -> 341
12:57:30.459 -> 331
12:57:30.499 -> 335
12:57:30.499 -> 348
12:57:30.499 -> 346
12:57:30.499 -> 335
12:57:30.499 -> 338
12:57:30.499 -> 349
12:57:30.499 -> 344
12:57:30.499 -> 334
12:57:30.539 -> 337
12:57:30.539 -> 346
12:57:30.539 -> 344
12:57:30.539 -> 356
12:57:30.539 -> 394
12:57:30.539 -> 434
12:57:30.539 -> 431
12:57:30.579 -> 397
12:57:30.579 -> 380
12:57:30.579 -> 363
12:57:30.579 -> 316
12:57:30.579 -> 287
12:57:30.579 -> 314
12:57:30.579 -> 346
12:57:30.579 -> 343
12:57:30.619 -> 339
12:57:30.619 -> 352
12:57:30.619 -> 347
12:57:30.619 -> 343
12:57:30.619 -> 354
12:57:30.619 -> 357
12:57:30.619 -> 347
12:57:30.659 -> 345
12:57:30.659 -> 356
12:57:30.659 -> 358
12:57:30.659 -> 346
12:57:30.659 -> 346
12:57:30.659 -> 358
12:57:30.659 -> 358
12:57:30.659 -> 347
12:57:30.699 -> 350
12:57:30.699 -> 362
12:57:30.699 -> 360
12:57:30.699 -> 350
12:57:30.699 -> 352
12:57:30.699 -> 365
12:57:30.699 -> 362
12:57:30.699 -> 352
12:57:30.739 -> 356
12:57:30.739 -> 369
12:57:30.739 -> 366
12:57:30.739 -> 359
12:57:30.739 -> 368
12:57:30.739 -> 378
12:57:30.739 -> 374
12:57:30.779 -> 369
12:57:30.779 -> 379
12:57:30.779 -> 390
12:57:30.779 -> 383
12:57:30.779 -> 380
12:57:30.779 -> 391
12:57:30.779 -> 398
12:57:30.779 -> 388
12:57:30.819 -> 382
12:57:30.819 -> 394
12:57:30.819 -> 399
12:57:30.819 -> 386
12:57:30.819 -> 379
12:57:30.819 -> 383
12:57:30.819 -> 381
12:57:30.819 -> 362
12:57:30.859 -> 353
12:57:30.859 -> 358
12:57:30.859 -> 354
12:57:30.859 -> 339
12:57:30.859 -> 334
12:57:30.859 -> 343
12:57:30.859 -> 341
12:57:30.859 -> 329
12:57:30.899 -> 328
12:57:30.899 -> 338
12:57:30.899 -> 334
12:57:30.899 -> 323
12:57:30.899 -> 326
12:57:30.899 -> 336
12:57:30.899 -> 332
12:57:30.899 -> 320
12:57:30.939 -> 324
12:57:30.939 -> 338
12:57:30.939 -> 332
12:57:30.939 -> 322
12:57:30.939 -> 338
12:57:30.939 -> 332
12:57:30.939 -> 324
12:57:30.979 -> 331
12:57:30.979 -> 341
12:57:30.979 -> 332
12:57:30.979 -> 324
12:57:30.979 -> 332
12:57:30.979 -> 341
12:57:30.979 -> 331
12:57:30.979 -> 325
12:57:31.019 -> 334
12:57:31.019 -> 339
12:57:31.019 -> 328
12:57:31.019 -> 324
12:57:31.019 -> 336
12:57:31.019 -> 339
12:57:31.019 -> 326
12:57:31.019 -> 323
12:57:31.059 -> 333
12:57:31.059 -> 335
12:57:31.059 -> 322
12:57:31.059 -> 322
12:57:31.059 -> 335
12:57:31.059 -> 334
12:57:31.059 -> 322
12:57:31.099 -> 322
12:57:31.099 -> 333
12:57:31.099 -> 332
12:57:31.099 -> 322
12:57:31.099 -> 322
12:57:31.099 -> 332
12:57:31.099 -> 329
12:57:31.099 -> 319
12:57:31.139 -> 323
12:57:31.139 -> 334
12:57:31.139 -> 327
12:57:31.139 -> 317
12:57:31.139 -> 322
12:57:31.139 -> 332
12:57:31.139 -> 326
12:57:31.179 -> 317
12:57:31.179 -> 324
12:57:31.179 -> 335
12:57:31.179 -> 326
12:57:31.179 -> 319
12:57:31.179 -> 325
12:57:31.179 -> 333
12:57:31.179 -> 325
12:57:31.219 -> 320
12:57:31.219 -> 328
12:57:31.219 -> 333
12:57:31.219 -> 322
12:57:31.219 -> 318
12:57:31.219 -> 330
12:57:31.219 -> 334
12:57:31.219 -> 322
12:57:31.259 -> 319
12:57:31.259 -> 329
12:57:31.259 -> 331
12:57:31.259 -> 319
12:57:31.259 -> 320
12:57:31.259 -> 333
12:57:31.259 -> 333
12:57:31.259 -> 325
12:57:31.299 -> 336
12:57:31.299 -> 334
12:57:31.299 -> 325
12:57:31.299 -> 329
12:57:31.299 -> 344
12:57:31.299 -> 342
12:57:31.299 -> 329
12:57:31.339 -> 328
12:57:31.339 -> 333
12:57:31.339 -> 323
12:57:31.339 -> 310
12:57:31.339 -> 315
12:57:31.339 -> 325
12:57:31.339 -> 317
12:57:31.339 -> 307
12:57:31.379 -> 315
12:57:31.379 -> 324
12:57:31.379 -> 315
12:57:31.379 -> 308
12:57:31.379 -> 318
12:57:31.379 -> 324
12:57:31.379 -> 311
12:57:31.379 -> 302
12:57:31.419 -> 317
12:57:31.419 -> 340
12:57:31.419 -> 360
12:57:31.419 -> 391
12:57:31.419 -> 417
12:57:31.419 -> 407
12:57:31.419 -> 369
12:57:31.469 -> 336
12:57:31.469 -> 305
12:57:31.469 -> 282
12:57:31.469 -> 288
12:57:31.469 -> 302
12:57:31.469 -> 319
12:57:31.469 -> 321
12:57:31.469 -> 309
12:57:31.469 -> 309
12:57:31.469 -> 321
12:57:31.509 -> 319
12:57:31.509 -> 307
12:57:31.509 -> 309
12:57:31.509 -> 320
12:57:31.509 -> 319
12:57:31.509 -> 309
12:57:31.509 -> 313
12:57:31.549 -> 324
12:57:31.549 -> 319
12:57:31.549 -> 308
12:57:31.549 -> 315
12:57:31.549 -> 327
12:57:31.549 -> 321
12:57:31.549 -> 311
12:57:31.549 -> 318
12:57:31.589 -> 329
12:57:31.589 -> 321
12:57:31.589 -> 314
12:57:31.589 -> 323
12:57:31.589 -> 333
12:57:31.589 -> 324
12:57:31.589 -> 317
12:57:31.589 -> 327
12:57:31.629 -> 329
12:57:31.629 -> 327
12:57:31.629 -> 339
12:57:31.629 -> 346
12:57:31.629 -> 337
12:57:31.629 -> 336
12:57:31.629 -> 349
12:57:31.629 -> 354
12:57:31.669 -> 343
12:57:31.669 -> 342
12:57:31.669 -> 356
12:57:31.669 -> 360
12:57:31.669 -> 351
12:57:31.669 -> 350
12:57:31.669 -> 359
12:57:31.669 -> 357
12:57:31.709 -> 343
12:57:31.709 -> 340
12:57:31.709 -> 345
12:57:31.709 -> 335
12:57:31.709 -> 318
12:57:31.709 -> 315
12:57:31.709 -> 321
12:57:31.749 -> 313
12:57:31.749 -> 299
12:57:31.749 -> 300
12:57:31.749 -> 308
12:57:31.749 -> 299
12:57:31.749 -> 289
12:57:31.749 -> 295
12:57:31.749 -> 303
12:57:31.789 -> 296
12:57:31.789 -> 288
12:57:31.789 -> 295
12:57:31.789 -> 303
12:57:31.789 -> 292
12:57:31.789 -> 286
12:57:31.789 -> 296
12:57:31.789 -> 305
12:57:31.829 -> 296
12:57:31.829 -> 290
12:57:31.829 -> 300
12:57:31.829 -> 305
12:57:31.829 -> 295
12:57:31.829 -> 292
12:57:31.829 -> 304
12:57:31.869 -> 305
12:57:31.869 -> 294
12:57:31.869 -> 292
12:57:31.869 -> 303
12:57:31.869 -> 306
12:57:31.869 -> 293
12:57:31.869 -> 291
12:57:31.869 -> 304
12:57:31.909 -> 304
12:57:31.909 -> 292
12:57:31.909 -> 293
12:57:31.909 -> 304
12:57:31.909 -> 303
12:57:31.909 -> 291
12:57:31.909 -> 296
12:57:31.949 -> 307
12:57:31.949 -> 302
12:57:31.949 -> 291
12:57:31.949 -> 309
12:57:31.949 -> 304
12:57:31.949 -> 294
12:57:31.949 -> 300
12:57:31.949 -> 309
12:57:31.989 -> 302
12:57:31.989 -> 295
12:57:31.989 -> 302
12:57:31.989 -> 311
12:57:31.989 -> 302
12:57:31.989 -> 295
12:57:31.989 -> 305
12:57:31.989 -> 313
12:57:32.029 -> 302
12:57:32.029 -> 297
12:57:32.029 -> 308
12:57:32.029 -> 314
12:57:32.029 -> 301
12:57:32.029 -> 297
12:57:32.029 -> 308
12:57:32.029 -> 312
12:57:32.069 -> 299
12:57:32.069 -> 297
12:57:32.069 -> 311
12:57:32.069 -> 313
12:57:32.069 -> 300
12:57:32.069 -> 300
12:57:32.069 -> 312
12:57:32.109 -> 313
12:57:32.109 -> 301
12:57:32.109 -> 303
12:57:32.109 -> 314
12:57:32.109 -> 310
12:57:32.109 -> 300
12:57:32.109 -> 304
12:57:32.109 -> 316
12:57:32.149 -> 312
12:57:32.149 -> 301
12:57:32.149 -> 304
12:57:32.149 -> 317
12:57:32.149 -> 314
12:57:32.149 -> 304
12:57:32.149 -> 307
12:57:32.149 -> 316
12:57:32.189 -> 310
12:57:32.189 -> 304
12:57:32.189 -> 311
12:57:32.189 -> 319
12:57:32.189 -> 310
12:57:32.189 -> 302
12:57:32.189 -> 310
12:57:32.229 -> 319
12:57:32.229 -> 310
12:57:32.229 -> 305
12:57:32.229 -> 315
12:57:32.229 -> 319
12:57:32.229 -> 309
12:57:32.229 -> 305
12:57:32.229 -> 315
12:57:32.269 -> 320
12:57:32.269 -> 307
12:57:32.269 -> 304
12:57:32.269 -> 315
12:57:32.269 -> 320
12:57:32.269 -> 308
12:57:32.269 -> 317
12:57:32.269 -> 318
12:57:32.309 -> 307
12:57:32.309 -> 309
12:57:32.309 -> 320
12:57:32.309 -> 318
12:57:32.309 -> 306
12:57:32.309 -> 308
12:57:32.309 -> 320
12:57:32.309 -> 318
12:57:32.349 -> 307
12:57:32.349 -> 313
12:57:32.349 -> 327
12:57:32.349 -> 323
12:57:32.349 -> 311
12:57:32.349 -> 318
12:57:32.349 -> 330
12:57:32.384 -> 321
12:57:32.384 -> 315
12:57:32.384 -> 324
12:57:32.384 -> 337
12:57:32.384 -> 331
12:57:32.384 -> 324
12:57:32.384 -> 331
12:57:32.424 -> 336
12:57:32.424 -> 321
12:57:32.424 -> 309
12:57:32.424 -> 315
12:57:32.424 -> 320
12:57:32.424 -> 309
12:57:32.424 -> 305
12:57:32.424 -> 319
12:57:32.459 -> 322
12:57:32.459 -> 309
12:57:32.459 -> 305
12:57:32.459 -> 318
12:57:32.459 -> 321
12:57:32.459 -> 307
12:57:32.499 -> 302
12:57:32.499 -> 315
12:57:32.499 -> 326
12:57:32.499 -> 337
12:57:32.499 -> 375
12:57:32.499 -> 426
12:57:32.499 -> 434
12:57:32.499 -> 401
12:57:32.539 -> 373
12:57:32.539 -> 347
12:57:32.539 -> 296
12:57:32.539 -> 273
12:57:32.539 -> 295
12:57:32.539 -> 318
12:57:32.539 -> 318
12:57:32.539 -> 309
12:57:32.579 -> 314
12:57:32.579 -> 324
12:57:32.579 -> 316
12:57:32.579 -> 307
12:57:32.579 -> 314
12:57:32.579 -> 324
12:57:32.579 -> 317
12:57:32.579 -> 308
12:57:32.619 -> 317
12:57:32.619 -> 316
12:57:32.619 -> 309
12:57:32.619 -> 320
12:57:32.619 -> 328
12:57:32.619 -> 318
12:57:32.619 -> 315
12:57:32.659 -> 326
12:57:32.659 -> 330
12:57:32.659 -> 320
12:57:32.659 -> 316
12:57:32.659 -> 328
12:57:32.659 -> 332
12:57:32.659 -> 321
12:57:32.699 -> 320
12:57:32.699 -> 333
12:57:32.699 -> 338
12:57:32.699 -> 327
12:57:32.699 -> 327
12:57:32.699 -> 341
12:57:32.699 -> 342
12:57:32.699 -> 334
12:57:32.739 -> 339
12:57:32.739 -> 353
12:57:32.739 -> 351
12:57:32.739 -> 342
12:57:32.739 -> 348
12:57:32.739 -> 361
12:57:32.739 -> 356
12:57:32.739 -> 348
12:57:32.779 -> 353
12:57:32.779 -> 364
12:57:32.779 -> 356
12:57:32.779 -> 346
12:57:32.779 -> 349
12:57:32.779 -> 353
12:57:32.779 -> 341
12:57:32.779 -> 328
12:57:32.819 -> 331
12:57:32.819 -> 332
12:57:32.819 -> 318
12:57:32.819 -> 306
12:57:32.819 -> 310
12:57:32.819 -> 313
12:57:32.819 -> 300
12:57:32.859 -> 293
12:57:32.859 -> 302
12:57:32.859 -> 306
12:57:32.859 -> 295
12:57:32.859 -> 293
12:57:32.859 -> 305
12:57:32.859 -> 308
12:57:32.859 -> 297
12:57:32.899 -> 295
12:57:32.899 -> 305
12:57:32.899 -> 306
12:57:32.899 -> 293
12:57:32.899 -> 294
12:57:32.899 -> 307
12:57:32.899 -> 307
12:57:32.899 -> 296
12:57:32.939 -> 298
12:57:32.939 -> 310
12:57:32.939 -> 308
12:57:32.939 -> 297
12:57:32.939 -> 311
12:57:32.939 -> 306
12:57:32.939 -> 296
12:57:32.939 -> 301
12:57:32.979 -> 312
12:57:32.979 -> 304
12:57:32.979 -> 294
12:57:32.979 -> 300
12:57:32.979 -> 311
12:57:32.979 -> 304
12:57:32.979 -> 296
12:57:33.019 -> 304
12:57:33.019 -> 312
12:57:33.019 -> 303
12:57:33.019 -> 295
12:57:33.019 -> 303
12:57:33.019 -> 311
12:57:33.019 -> 300
12:57:33.019 -> 295
12:57:33.059 -> 307
12:57:33.059 -> 313
12:57:33.059 -> 303
12:57:33.059 -> 299
12:57:33.059 -> 310
12:57:33.059 -> 313
12:57:33.059 -> 301
12:57:33.059 -> 299
12:57:33.099 -> 312
12:57:33.099 -> 314
12:57:33.099 -> 303
12:57:33.099 -> 302
12:57:33.099 -> 312
12:57:33.099 -> 313
12:57:33.099 -> 303
12:57:33.099 -> 304
12:57:33.139 -> 316
12:57:33.139 -> 313
12:57:33.139 -> 301
12:57:33.139 -> 305
12:57:33.139 -> 317
12:57:33.139 -> 314
12:57:33.139 -> 303
12:57:33.179 -> 307
12:57:33.179 -> 317
12:57:33.179 -> 312
12:57:33.179 -> 301
12:57:33.179 -> 308
12:57:33.179 -> 317
12:57:33.179 -> 310
12:57:33.219 -> 300
12:57:33.219 -> 308
12:57:33.219 -> 318
12:57:33.219 -> 310
12:57:33.219 -> 302
12:57:33.219 -> 310
12:57:33.219 -> 317
12:57:33.219 -> 307
12:57:33.259 -> 303
12:57:33.259 -> 312
12:57:33.259 -> 319
12:57:33.259 -> 309
12:57:33.259 -> 304
12:57:33.259 -> 312
12:57:33.259 -> 316
12:57:33.259 -> 306
12:57:33.299 -> 317
12:57:33.299 -> 316
12:57:33.299 -> 303
12:57:33.299 -> 303
12:57:33.299 -> 314
12:57:33.299 -> 314
12:57:33.299 -> 303
12:57:33.339 -> 305
12:57:33.339 -> 316
12:57:33.339 -> 315
12:57:33.339 -> 302
12:57:33.339 -> 304
12:57:33.339 -> 314
12:57:33.339 -> 310
12:57:33.339 -> 298
12:57:33.379 -> 303
12:57:33.379 -> 316
12:57:33.379 -> 309
12:57:33.379 -> 299
12:57:33.379 -> 305
12:57:33.379 -> 316
12:57:33.379 -> 310
12:57:33.379 -> 302
12:57:33.419 -> 308
12:57:33.419 -> 318
12:57:33.419 -> 312
12:57:33.419 -> 313
12:57:33.419 -> 320
12:57:33.419 -> 320
12:57:33.419 -> 310
12:57:33.419 -> 307
12:57:33.459 -> 323
12:57:33.459 -> 331
12:57:33.459 -> 319
12:57:33.459 -> 316
12:57:33.459 -> 328
12:57:33.459 -> 334
12:57:33.459 -> 321
12:57:33.459 -> 315
12:57:33.499 -> 319
12:57:33.499 -> 314
12:57:33.499 -> 300
12:57:33.499 -> 299
12:57:33.499 -> 310
12:57:33.499 -> 310
12:57:33.499 -> 299
12:57:33.539 -> 300
12:57:33.539 -> 311
12:57:33.539 -> 309
12:57:33.539 -> 295
12:57:33.539 -> 294
12:57:33.539 -> 303
12:57:33.539 -> 308
12:57:33.539 -> 318
12:57:33.579 -> 354
12:57:33.579 -> 405
12:57:33.579 -> 419
12:57:33.579 -> 393
12:57:33.579 -> 367
12:57:33.579 -> 345
12:57:33.579 -> 291
12:57:33.579 -> 254
12:57:33.619 -> 277
12:57:33.619 -> 303
12:57:33.619 -> 297
12:57:33.619 -> 307
12:57:33.619 -> 316
12:57:33.619 -> 307
12:57:33.619 -> 300
12:57:33.659 -> 308
12:57:33.659 -> 315
12:57:33.659 -> 305
12:57:33.659 -> 300
12:57:33.659 -> 311
12:57:33.659 -> 317
12:57:33.659 -> 305
12:57:33.659 -> 303
12:57:33.699 -> 315
12:57:33.699 -> 317
12:57:33.699 -> 305
12:57:33.699 -> 304
12:57:33.699 -> 317
12:57:33.699 -> 318
12:57:33.699 -> 307
12:57:33.739 -> 308
12:57:33.739 -> 319
12:57:33.739 -> 319
12:57:33.739 -> 309
12:57:33.739 -> 312
12:57:33.739 -> 323
12:57:33.739 -> 323
12:57:33.739 -> 316
12:57:33.779 -> 323
12:57:33.779 -> 334
12:57:33.779 -> 331
12:57:33.779 -> 323
12:57:33.779 -> 332
12:57:33.779 -> 345
12:57:33.779 -> 342
12:57:33.779 -> 336
12:57:33.819 -> 344
12:57:33.819 -> 354
12:57:33.819 -> 348
12:57:33.819 -> 340
12:57:33.819 -> 349
12:57:33.819 -> 357
12:57:33.819 -> 349
12:57:33.819 -> 341
12:57:33.859 -> 347
12:57:33.859 -> 348
12:57:33.859 -> 333
12:57:33.859 -> 322
12:57:33.859 -> 326
12:57:33.859 -> 325
12:57:33.859 -> 308
12:57:33.899 -> 296
12:57:33.899 -> 304
12:57:33.899 -> 305
12:57:33.899 -> 290
12:57:33.899 -> 286
12:57:33.899 -> 294
12:57:33.899 -> 295
12:57:33.899 -> 282
12:57:33.939 -> 282
12:57:33.939 -> 293
12:57:33.939 -> 292
12:57:33.939 -> 283
12:57:33.939 -> 296
12:57:33.939 -> 295
12:57:33.939 -> 284
12:57:33.939 -> 288
12:57:33.979 -> 300
12:57:33.979 -> 295
12:57:33.979 -> 285
12:57:33.979 -> 290
12:57:33.979 -> 303
12:57:33.979 -> 299
12:57:33.979 -> 289
12:57:33.979 -> 296
12:57:34.019 -> 306
12:57:34.019 -> 298
12:57:34.019 -> 290
12:57:34.019 -> 298
12:57:34.019 -> 307
12:57:34.019 -> 297
12:57:34.019 -> 291
12:57:34.059 -> 300
12:57:34.059 -> 306
12:57:34.059 -> 296
12:57:34.059 -> 291
12:57:34.059 -> 303
12:57:34.059 -> 309
12:57:34.059 -> 297
12:57:34.059 -> 293
12:57:34.099 -> 303
12:57:34.099 -> 307
12:57:34.099 -> 296
12:57:34.099 -> 295
12:57:34.099 -> 307
12:57:34.099 -> 309
12:57:34.099 -> 297
12:57:34.099 -> 298
12:57:34.139 -> 312
12:57:34.139 -> 312
12:57:34.139 -> 300
12:57:34.139 -> 301
12:57:34.139 -> 312
12:57:34.139 -> 310
12:57:34.139 -> 300
12:57:34.179 -> 303
12:57:34.179 -> 314
12:57:34.179 -> 311
12:57:34.179 -> 301
12:57:34.179 -> 307
12:57:34.179 -> 319
12:57:34.179 -> 312
12:57:34.179 -> 301
12:57:34.219 -> 308
12:57:34.219 -> 318
12:57:34.219 -> 311
12:57:34.219 -> 304
12:57:34.219 -> 312
12:57:34.219 -> 320
12:57:34.219 -> 312
12:57:34.259 -> 306
12:57:34.259 -> 315
12:57:34.259 -> 322
12:57:34.259 -> 312
12:57:34.259 -> 307
12:57:34.259 -> 316
12:57:34.259 -> 321
12:57:34.259 -> 308
12:57:34.299 -> 318
12:57:34.299 -> 321
12:57:34.299 -> 310
12:57:34.299 -> 309
12:57:34.299 -> 321
12:57:34.299 -> 323
12:57:34.299 -> 311
12:57:34.299 -> 309
12:57:34.339 -> 322
12:57:34.339 -> 321
12:57:34.339 -> 310
12:57:34.339 -> 311
12:57:34.339 -> 323
12:57:34.339 -> 321
12:57:34.339 -> 310
12:57:34.379 -> 314
12:57:34.379 -> 326
12:57:34.379 -> 322
12:57:34.379 -> 312
12:57:34.379 -> 316
12:57:34.379 -> 327
12:57:34.379 -> 323
12:57:34.379 -> 316
12:57:34.419 -> 324
12:57:34.419 -> 333
12:57:34.419 -> 329
12:57:34.419 -> 323
12:57:34.419 -> 329
12:57:34.419 -> 339
12:57:34.419 -> 334
12:57:34.419 -> 331
12:57:34.459 -> 339
12:57:34.459 -> 344
12:57:34.459 -> 330
12:57:34.459 -> 320
12:57:34.459 -> 323
12:57:34.459 -> 324
12:57:34.459 -> 312
12:57:34.459 -> 308
12:57:34.499 -> 319
12:57:34.499 -> 325
12:57:34.499 -> 314
12:57:34.499 -> 311
12:57:34.499 -> 319
12:57:34.499 -> 323
12:57:34.499 -> 312
12:57:34.499 -> 309
12:57:34.539 -> 317
12:57:34.539 -> 322
12:57:34.539 -> 326
12:57:34.539 -> 356
12:57:34.539 -> 409
12:57:34.539 -> 437
12:57:34.539 -> 416
12:57:34.579 -> 388
12:57:34.579 -> 367
12:57:34.579 -> 321
12:57:34.579 -> 269
12:57:34.579 -> 281
12:57:34.579 -> 317
12:57:34.579 -> 322
12:57:34.579 -> 314
12:57:34.619 -> 323
12:57:34.619 -> 326
12:57:34.619 -> 317
12:57:34.619 -> 323
12:57:34.619 -> 333
12:57:34.619 -> 326
12:57:34.619 -> 317
12:57:34.619 -> 326
12:57:34.659 -> 335
12:57:34.659 -> 325
12:57:34.659 -> 321
12:57:34.659 -> 331
12:57:34.659 -> 338
12:57:34.659 -> 329
12:57:34.659 -> 326
12:57:34.699 -> 336
12:57:34.699 -> 341
12:57:34.699 -> 330
12:57:34.699 -> 327
12:57:34.699 -> 338
12:57:34.699 -> 342
12:57:34.699 -> 333
12:57:34.699 -> 333
12:57:34.739 -> 346
12:57:34.739 -> 348
12:57:34.739 -> 339
12:57:34.739 -> 340
12:57:34.739 -> 354
12:57:34.739 -> 357
12:57:34.739 -> 348
12:57:34.779 -> 352
12:57:34.779 -> 366
12:57:34.779 -> 365
12:57:34.779 -> 358
12:57:34.779 -> 364
12:57:34.779 -> 376
12:57:34.779 -> 371
12:57:34.779 -> 363
12:57:34.819 -> 370
12:57:34.819 -> 382
12:57:34.819 -> 374
12:57:34.819 -> 364
12:57:34.819 -> 368
12:57:34.819 -> 373
12:57:34.819 -> 358
12:57:34.819 -> 347
12:57:34.854 -> 349
12:57:34.854 -> 348
12:57:34.854 -> 331
12:57:34.854 -> 320
12:57:34.854 -> 326
12:57:34.854 -> 329
12:57:34.889 -> 315
12:57:34.889 -> 307
12:57:34.889 -> 316
12:57:34.889 -> 319
12:57:34.889 -> 307
12:57:34.889 -> 303
12:57:34.889 -> 313
12:57:34.889 -> 316
12:57:34.929 -> 305
12:57:34.929 -> 304
12:57:34.929 -> 316
12:57:34.929 -> 318
12:57:34.929 -> 306
12:57:34.929 -> 318
12:57:34.929 -> 317
12:57:34.969 -> 307
12:57:34.969 -> 309
12:57:34.969 -> 322
12:57:34.969 -> 318
12:57:34.969 -> 309
12:57:34.969 -> 313
12:57:34.969 -> 325
12:57:35.009 -> 320
12:57:35.009 -> 310
12:57:35.009 -> 315
12:57:35.009 -> 325
12:57:35.009 -> 317
12:57:35.009 -> 309
12:57:35.009 -> 317
12:57:35.009 -> 327
12:57:35.049 -> 318
12:57:35.049 -> 311
12:57:35.049 -> 319
12:57:35.049 -> 328
12:57:35.049 -> 319
12:57:35.049 -> 313
12:57:35.049 -> 321
12:57:35.049 -> 327
12:57:35.089 -> 316
12:57:35.089 -> 312
12:57:35.089 -> 322
12:57:35.089 -> 326
12:57:35.089 -> 318
12:57:35.089 -> 315
12:57:35.089 -> 326
12:57:35.089 -> 329
12:57:35.129 -> 317
12:57:35.129 -> 314
12:57:35.129 -> 325
12:57:35.129 -> 327
12:57:35.129 -> 315
12:57:35.129 -> 317
12:57:35.129 -> 330
12:57:35.169 -> 331
12:57:35.169 -> 319
12:57:35.169 -> 320
12:57:35.169 -> 331
12:57:35.169 -> 328
12:57:35.169 -> 317
12:57:35.169 -> 321
12:57:35.169 -> 333
12:57:35.209 -> 329
12:57:35.209 -> 319
12:57:35.209 -> 324
12:57:35.209 -> 334
12:57:35.209 -> 327
12:57:35.209 -> 317
12:57:35.209 -> 324
12:57:35.209 -> 335
12:57:35.249 -> 327
12:57:35.249 -> 320
12:57:35.249 -> 326
12:57:35.249 -> 335
12:57:35.249 -> 327
12:57:35.249 -> 320
12:57:35.249 -> 329
12:57:35.249 -> 336
12:57:35.289 -> 321
12:57:35.289 -> 330
12:57:35.289 -> 337
12:57:35.289 -> 326
12:57:35.289 -> 323
12:57:35.289 -> 333
12:57:35.289 -> 336
12:57:35.329 -> 325
12:57:35.329 -> 322
12:57:35.329 -> 333
12:57:35.329 -> 334
12:57:35.329 -> 322
12:57:35.329 -> 324
12:57:35.329 -> 335
12:57:35.329 -> 333
12:57:35.369 -> 320
12:57:35.369 -> 323
12:57:35.369 -> 336
12:57:35.369 -> 332
12:57:35.369 -> 321
12:57:35.369 -> 324
12:57:35.369 -> 336
12:57:35.369 -> 331
12:57:35.409 -> 320
12:57:35.409 -> 326
12:57:35.409 -> 341
12:57:35.409 -> 336
12:57:35.409 -> 326
12:57:35.409 -> 332
12:57:35.409 -> 343
12:57:35.409 -> 335
12:57:35.449 -> 328
12:57:35.449 -> 339
12:57:35.449 -> 352
12:57:35.449 -> 346
12:57:35.449 -> 338
12:57:35.449 -> 342
12:57:35.449 -> 345
12:57:35.489 -> 330
12:57:35.489 -> 319
12:57:35.489 -> 326
12:57:35.489 -> 330
12:57:35.489 -> 320
12:57:35.489 -> 316
12:57:35.489 -> 327
12:57:35.529 -> 332
12:57:35.529 -> 321
12:57:35.529 -> 317
12:57:35.529 -> 328
12:57:35.529 -> 329
12:57:35.529 -> 315
12:57:35.529 -> 311
12:57:35.529 -> 328
12:57:35.569 -> 345
12:57:35.569 -> 367
12:57:35.569 -> 412
12:57:35.569 -> 448
12:57:35.569 -> 435
12:57:35.569 -> 392
12:57:35.569 -> 358
12:57:35.569 -> 324
12:57:35.609 -> 284
12:57:35.609 -> 285
12:57:35.609 -> 310
12:57:35.609 -> 326
12:57:35.609 -> 318
12:57:35.609 -> 323
12:57:35.609 -> 334
12:57:35.609 -> 329
12:57:35.649 -> 320
12:57:35.649 -> 327
12:57:35.649 -> 337
12:57:35.649 -> 329
12:57:35.649 -> 321
12:57:35.649 -> 328
12:57:35.649 -> 337
12:57:35.689 -> 328
12:57:35.689 -> 322
12:57:35.689 -> 333
12:57:35.689 -> 340
12:57:35.689 -> 329
12:57:35.689 -> 325
12:57:35.689 -> 336
12:57:35.689 -> 341
12:57:35.728 -> 332
12:57:35.728 -> 331
12:57:35.728 -> 342
12:57:35.728 -> 345
12:57:35.728 -> 334
12:57:35.728 -> 333
12:57:35.728 -> 347
12:57:35.728 -> 350
12:57:35.769 -> 341
12:57:35.769 -> 343
12:57:35.769 -> 356
12:57:35.769 -> 358
12:57:35.769 -> 352
12:57:35.769 -> 356
12:57:35.769 -> 371
12:57:35.769 -> 372
12:57:35.809 -> 362
12:57:35.809 -> 367
12:57:35.809 -> 380
12:57:35.809 -> 376
12:57:35.809 -> 366
12:57:35.809 -> 370
12:57:35.809 -> 380
12:57:35.849 -> 372
12:57:35.849 -> 362
12:57:35.849 -> 365
12:57:35.849 -> 368
12:57:35.849 -> 353
12:57:35.849 -> 337
12:57:35.849 -> 339
12:57:35.849 -> 342
12:57:35.889 -> 327
12:57:35.889 -> 317
12:57:35.889 -> 321
12:57:35.889 -> 325
12:57:35.889 -> 313
12:57:35.889 -> 308
12:57:35.889 -> 316
12:57:35.889 -> 319
12:57:35.929 -> 307
12:57:35.929 -> 305
12:57:35.929 -> 317
12:57:35.929 -> 319
12:57:35.929 -> 308
12:57:35.929 -> 318
12:57:35.929 -> 319
12:57:35.969 -> 307
12:57:35.969 -> 308
12:57:35.969 -> 320
12:57:35.969 -> 321
12:57:35.969 -> 310
12:57:35.969 -> 311
12:57:35.969 -> 323
12:57:35.969 -> 321
12:57:36.009 -> 310
12:57:36.009 -> 314
12:57:36.009 -> 325
12:57:36.009 -> 321
12:57:36.009 -> 313
12:57:36.009 -> 317
12:57:36.009 -> 327
12:57:36.049 -> 320
12:57:36.049 -> 312
12:57:36.049 -> 317
12:57:36.049 -> 325
12:57:36.049 -> 318
12:57:36.049 -> 313
12:57:36.049 -> 321
12:57:36.049 -> 328
12:57:36.089 -> 319
12:57:36.089 -> 312
12:57:36.089 -> 321
12:57:36.089 -> 327
12:57:36.089 -> 316
12:57:36.089 -> 313
12:57:36.089 -> 323
12:57:36.089 -> 328
12:57:36.129 -> 318
12:57:36.129 -> 314
12:57:36.129 -> 325
12:57:36.129 -> 327
12:57:36.129 -> 316
12:57:36.129 -> 314
12:57:36.129 -> 326
12:57:36.169 -> 328
12:57:36.169 -> 315
12:57:36.169 -> 315
12:57:36.169 -> 327
12:57:36.169 -> 328
12:57:36.169 -> 316
12:57:36.169 -> 317
12:57:36.169 -> 329
12:57:36.209 -> 325
12:57:36.209 -> 313
12:57:36.209 -> 319
12:57:36.209 -> 329
12:57:36.209 -> 324
12:57:36.209 -> 313
12:57:36.209 -> 318
12:57:36.209 -> 331
12:57:36.249 -> 324
12:57:36.249 -> 315
12:57:36.249 -> 322
12:57:36.249 -> 330
12:57:36.249 -> 322
12:57:36.249 -> 314
12:57:36.249 -> 321
12:57:36.249 -> 329
12:57:36.289 -> 316
12:57:36.289 -> 323
12:57:36.289 -> 330
12:57:36.289 -> 321
12:57:36.289 -> 316
12:57:36.289 -> 327
12:57:36.289 -> 332
12:57:36.289 -> 320
12:57:36.329 -> 315
12:57:36.329 -> 323
12:57:36.329 -> 328
12:57:36.329 -> 319
12:57:36.329 -> 318
12:57:36.329 -> 328
12:57:36.329 -> 330
12:57:36.369 -> 318
12:57:36.369 -> 317
12:57:36.369 -> 328
12:57:36.369 -> 329
12:57:36.369 -> 316
12:57:36.369 -> 318
12:57:36.369 -> 334
12:57:36.369 -> 337
12:57:36.409 -> 319
12:57:36.409 -> 314
12:57:36.409 -> 325
12:57:36.409 -> 323
12:57:36.409 -> 318
12:57:36.409 -> 324
12:57:36.409 -> 336
12:57:36.409 -> 331
12:57:36.449 -> 323
12:57:36.449 -> 331
12:57:36.449 -> 345
12:57:36.449 -> 334
12:57:36.449 -> 320
12:57:36.449 -> 322
12:57:36.449 -> 326
12:57:36.489 -> 314
12:57:36.489 -> 307
12:57:36.489 -> 314
12:57:36.489 -> 322
12:57:36.489 -> 312
12:57:36.489 -> 308
12:57:36.489 -> 317
12:57:36.489 -> 323
12:57:36.529 -> 312
12:57:36.529 -> 307
12:57:36.529 -> 317
12:57:36.529 -> 321
12:57:36.529 -> 314
12:57:36.529 -> 310
12:57:36.529 -> 338
12:57:36.569 -> 377
12:57:36.569 -> 408
12:57:36.569 -> 418
12:57:36.569 -> 408
12:57:36.569 -> 375
12:57:36.569 -> 327
12:57:36.569 -> 278
12:57:36.569 -> 272
12:57:36.609 -> 294
12:57:36.609 -> 301
12:57:36.609 -> 307
12:57:36.609 -> 319
12:57:36.609 -> 308
12:57:36.609 -> 312
12:57:36.609 -> 322
12:57:36.609 -> 317
12:57:36.649 -> 308
12:57:36.649 -> 314
12:57:36.649 -> 325
12:57:36.649 -> 317
12:57:36.649 -> 309
12:57:36.649 -> 314
12:57:36.649 -> 325
12:57:36.689 -> 316
12:57:36.689 -> 310
12:57:36.689 -> 320
12:57:36.689 -> 332
12:57:36.689 -> 324
12:57:36.689 -> 306
12:57:36.689 -> 313
12:57:36.689 -> 323
12:57:36.729 -> 317
12:57:36.729 -> 313
12:57:36.729 -> 323
12:57:36.729 -> 328
12:57:36.729 -> 319
12:57:36.729 -> 319
12:57:36.729 -> 332
12:57:36.729 -> 336
12:57:36.769 -> 326
12:57:36.769 -> 328
12:57:36.769 -> 342
12:57:36.769 -> 345
12:57:36.769 -> 336
12:57:36.769 -> 340
12:57:36.769 -> 353
12:57:36.769 -> 353
12:57:36.809 -> 344
12:57:36.809 -> 348
12:57:36.809 -> 361
12:57:36.809 -> 367
12:57:36.809 -> 350
12:57:36.809 -> 341
12:57:36.809 -> 350
12:57:36.849 -> 344
12:57:36.849 -> 330
12:57:36.849 -> 330
12:57:36.849 -> 333
12:57:36.849 -> 320
12:57:36.849 -> 305
12:57:36.849 -> 306
12:57:36.849 -> 310
12:57:36.889 -> 297
12:57:36.889 -> 285
12:57:36.889 -> 288
12:57:36.889 -> 293
12:57:36.889 -> 283
12:57:36.889 -> 279
12:57:36.889 -> 288
12:57:36.889 -> 292
12:57:36.928 -> 281
12:57:36.928 -> 274
12:57:36.928 -> 284
12:57:36.928 -> 290
12:57:36.928 -> 281
12:57:36.928 -> 295
12:57:36.928 -> 289
12:57:36.928 -> 273
12:57:36.969 -> 273
12:57:36.969 -> 287
12:57:36.969 -> 290
12:57:36.969 -> 279
12:57:36.969 -> 277
12:57:36.969 -> 290
12:57:36.969 -> 290
12:57:37.009 -> 279
12:57:37.009 -> 281
12:57:37.009 -> 293
12:57:37.009 -> 291
12:57:37.009 -> 281
12:57:37.009 -> 284
12:57:37.009 -> 294
12:57:37.009 -> 289
12:57:37.049 -> 278
12:57:37.049 -> 283
12:57:37.049 -> 294
12:57:37.049 -> 291
12:57:37.049 -> 286
12:57:37.049 -> 282
12:57:37.049 -> 285
12:57:37.089 -> 279
12:57:37.089 -> 273
12:57:37.089 -> 282
12:57:37.089 -> 290
12:57:37.089 -> 282
12:57:37.089 -> 275
12:57:37.089 -> 287
12:57:37.089 -> 294
12:57:37.129 -> 284
12:57:37.129 -> 278
12:57:37.129 -> 288
12:57:37.129 -> 293
12:57:37.129 -> 283
12:57:37.129 -> 278
12:57:37.129 -> 290
12:57:37.129 -> 297
12:57:37.169 -> 293
12:57:37.169 -> 283
12:57:37.169 -> 286
12:57:37.169 -> 288
12:57:37.169 -> 279
12:57:37.169 -> 281
12:57:37.169 -> 294
12:57:37.209 -> 294
12:57:37.209 -> 284
12:57:37.209 -> 287
12:57:37.209 -> 297
12:57:37.209 -> 295
12:57:37.209 -> 285
12:57:37.209 -> 285
12:57:37.209 -> 296
12:57:37.249 -> 291
12:57:37.249 -> 284
12:57:37.249 -> 289
12:57:37.249 -> 300
12:57:37.249 -> 296
12:57:37.249 -> 293
12:57:37.249 -> 288
12:57:37.249 -> 292
12:57:37.289 -> 284
12:57:37.289 -> 294
12:57:37.289 -> 306
12:57:37.289 -> 296
12:57:37.289 -> 289
12:57:37.289 -> 300
12:57:37.289 -> 307
12:57:37.289 -> 300
12:57:37.329 -> 298
12:57:37.329 -> 311
12:57:37.329 -> 314
12:57:37.329 -> 299
12:57:37.329 -> 291
12:57:37.329 -> 297
12:57:37.329 -> 302
12:57:37.369 -> 295
12:57:37.369 -> 283
12:57:37.369 -> 289
12:57:37.369 -> 292
12:57:37.369 -> 284
12:57:37.369 -> 286
12:57:37.369 -> 297
12:57:37.369 -> 296
12:57:37.409 -> 286
12:57:37.409 -> 287
12:57:37.409 -> 298
12:57:37.409 -> 294
12:57:37.409 -> 283
12:57:37.409 -> 298
12:57:37.409 -> 339
12:57:37.409 -> 369
12:57:37.449 -> 378
12:57:37.449 -> 371
12:57:37.449 -> 365
12:57:37.449 -> 324
12:57:37.449 -> 274
12:57:37.449 -> 246
12:57:37.449 -> 258
12:57:37.449 -> 277
12:57:37.489 -> 285
12:57:37.489 -> 294
12:57:37.489 -> 305
12:57:37.489 -> 300
12:57:37.489 -> 294
12:57:37.489 -> 303
12:57:37.489 -> 312
12:57:37.529 -> 304
12:57:37.529 -> 299
12:57:37.529 -> 309
12:57:37.529 -> 315
12:57:37.529 -> 305
12:57:37.529 -> 303
12:57:37.529 -> 321
12:57:37.569 -> 322
12:57:37.569 -> 300
12:57:37.569 -> 298
12:57:37.569 -> 315
12:57:37.569 -> 320
12:57:37.569 -> 307
12:57:37.569 -> 307
12:57:37.569 -> 321
12:57:37.609 -> 325
12:57:37.609 -> 314
12:57:37.609 -> 315
12:57:37.609 -> 328
12:57:37.609 -> 319
12:57:37.609 -> 322
12:57:37.609 -> 335
12:57:37.609 -> 334
12:57:37.649 -> 325
12:57:37.649 -> 334
12:57:37.649 -> 352
12:57:37.649 -> 351
12:57:37.649 -> 334
12:57:37.649 -> 340
12:57:37.649 -> 357
12:57:37.649 -> 354
12:57:37.689 -> 349
12:57:37.689 -> 357
12:57:37.689 -> 364
12:57:37.689 -> 354
12:57:37.689 -> 348
12:57:37.689 -> 357
12:57:37.689 -> 360
12:57:37.729 -> 346
12:57:37.729 -> 335
12:57:37.729 -> 338
12:57:37.729 -> 335
12:57:37.729 -> 318
12:57:37.729 -> 309
12:57:37.729 -> 316
12:57:37.729 -> 322
12:57:37.769 -> 300
12:57:37.769 -> 286
12:57:37.769 -> 296
12:57:37.769 -> 302
12:57:37.769 -> 290
12:57:37.769 -> 288
12:57:37.769 -> 300
12:57:37.769 -> 301
12:57:37.809 -> 291
12:57:37.809 -> 292
12:57:37.809 -> 304
12:57:37.809 -> 302
12:57:37.809 -> 291
12:57:37.809 -> 294
12:57:37.809 -> 307
12:57:37.809 -> 306
12:57:37.849 -> 297
12:57:37.849 -> 302
12:57:37.849 -> 314
12:57:37.849 -> 308
12:57:37.849 -> 298
12:57:37.849 -> 305
12:57:37.849 -> 316
12:57:37.889 -> 308
12:57:37.889 -> 300
12:57:37.889 -> 308
12:57:37.889 -> 317
12:57:37.889 -> 309
12:57:37.889 -> 303
12:57:37.889 -> 311
12:57:37.889 -> 320
12:57:37.929 -> 316
12:57:37.929 -> 301
12:57:37.929 -> 303
12:57:37.929 -> 311
12:57:37.929 -> 305
12:57:37.929 -> 314
12:57:37.929 -> 320
12:57:37.929 -> 309
12:57:37.969 -> 306
12:57:37.969 -> 317
12:57:37.969 -> 321
12:57:37.969 -> 311
12:57:37.969 -> 311
12:57:37.969 -> 322
12:57:37.969 -> 323
12:57:37.969 -> 312
12:57:38.009 -> 314
12:57:38.009 -> 327
12:57:38.009 -> 325
12:57:38.009 -> 314
12:57:38.009 -> 317
12:57:38.009 -> 331
12:57:38.009 -> 332
12:57:38.049 -> 323
12:57:38.049 -> 327
12:57:38.049 -> 341
12:57:38.049 -> 340
12:57:38.049 -> 331
12:57:38.049 -> 336
12:57:38.049 -> 349
12:57:38.089 -> 345
12:57:38.089 -> 341
12:57:38.089 -> 351
12:57:38.089 -> 358
12:57:38.089 -> 346
12:57:38.089 -> 334
12:57:38.089 -> 336
12:57:38.089 -> 342
12:57:38.129 -> 333
12:57:38.129 -> 327
12:57:38.129 -> 338
12:57:38.129 -> 344
12:57:38.129 -> 332
12:57:38.129 -> 328
12:57:38.129 -> 339
12:57:38.129 -> 345
12:57:38.169 -> 335
12:57:38.169 -> 332
12:57:38.169 -> 343
12:57:38.169 -> 344
12:57:38.169 -> 330
12:57:38.169 -> 334
12:57:38.169 -> 366
12:57:38.169 -> 401
12:57:38.209 -> 423
12:57:38.209 -> 430
12:57:38.209 -> 417
12:57:38.209 -> 391
12:57:38.209 -> 355
12:57:38.209 -> 316
12:57:38.209 -> 303
12:57:38.249 -> 318
12:57:38.249 -> 332
12:57:38.249 -> 344
12:57:38.249 -> 356
12:57:38.249 -> 354
12:57:38.249 -> 345
12:57:38.249 -> 351
12:57:38.249 -> 361
12:57:38.289 -> 348
12:57:38.289 -> 355
12:57:38.289 -> 365
12:57:38.289 -> 357
12:57:38.289 -> 350
12:57:38.289 -> 358
12:57:38.289 -> 368
12:57:38.289 -> 360
12:57:38.329 -> 354
12:57:38.329 -> 364
12:57:38.329 -> 371
12:57:38.329 -> 362
12:57:38.329 -> 358
12:57:38.329 -> 369
12:57:38.329 -> 376
12:57:38.329 -> 366
12:57:38.369 -> 362
12:57:38.369 -> 374
12:57:38.369 -> 379
12:57:38.369 -> 368
12:57:38.369 -> 370
12:57:38.369 -> 383
12:57:38.369 -> 386
12:57:38.409 -> 377
12:57:38.409 -> 379
12:57:38.409 -> 393
12:57:38.409 -> 395
12:57:38.409 -> 387
12:57:38.409 -> 392
12:57:38.409 -> 404
12:57:38.409 -> 404
12:57:38.449 -> 394
12:57:38.449 -> 398
12:57:38.449 -> 409
12:57:38.449 -> 405
12:57:38.449 -> 394
12:57:38.449 -> 398
12:57:38.449 -> 405
12:57:38.449 -> 393
12:57:38.489 -> 378
12:57:38.489 -> 377
12:57:38.489 -> 381
12:57:38.489 -> 367
12:57:38.489 -> 353
12:57:38.489 -> 356
12:57:38.489 -> 357
12:57:38.529 -> 345
12:57:38.529 -> 337
12:57:38.529 -> 344
12:57:38.529 -> 350
12:57:38.529 -> 338
12:57:38.529 -> 331
12:57:38.529 -> 340
12:57:38.529 -> 346
12:57:38.579 -> 336
12:57:38.579 -> 331
12:57:38.579 -> 341
12:57:38.579 -> 344
12:57:38.579 -> 333
12:57:38.579 -> 330
12:57:38.579 -> 342
12:57:38.579 -> 343
12:57:38.619 -> 333
12:57:38.619 -> 334
12:57:38.619 -> 345
12:57:38.619 -> 334
12:57:38.619 -> 333
12:57:38.619 -> 345
12:57:38.619 -> 343
12:57:38.619 -> 333
12:57:38.619 -> 337
12:57:38.659 -> 348
12:57:38.659 -> 342
12:57:38.659 -> 330
12:57:38.659 -> 336
12:57:38.659 -> 347
12:57:38.659 -> 340
12:57:38.659 -> 332
12:57:38.659 -> 339
12:57:38.699 -> 348
12:57:38.699 -> 344
12:57:38.699 -> 338
12:57:38.699 -> 345
12:57:38.699 -> 353
12:57:38.699 -> 342
12:57:38.699 -> 336
12:57:38.699 -> 344
12:57:38.739 -> 351
12:57:38.739 -> 340
12:57:38.739 -> 334
12:57:38.739 -> 344
12:57:38.739 -> 349
12:57:38.739 -> 338
12:57:38.739 -> 334
12:57:38.739 -> 344
12:57:38.779 -> 348
12:57:38.779 -> 337
12:57:38.779 -> 335
12:57:38.779 -> 346
12:57:38.779 -> 347
12:57:38.779 -> 337
12:57:38.779 -> 336
12:57:38.819 -> 346
12:57:38.819 -> 345
12:57:38.819 -> 334
12:57:38.819 -> 336
12:57:38.819 -> 345
12:57:38.819 -> 343
12:57:38.819 -> 333
12:57:38.859 -> 337
12:57:38.859 -> 348
12:57:38.859 -> 343
12:57:38.859 -> 331
12:57:38.859 -> 334
12:57:38.859 -> 346
12:57:38.859 -> 341
12:57:38.859 -> 332
12:57:38.899 -> 336
12:57:38.899 -> 345
12:57:38.899 -> 337
12:57:38.899 -> 328
12:57:38.899 -> 335
12:57:38.899 -> 343
12:57:38.899 -> 336
12:57:38.899 -> 329
12:57:38.939 -> 337
12:57:38.939 -> 344
12:57:38.939 -> 335
12:57:38.939 -> 336
12:57:38.939 -> 341
12:57:38.939 -> 330
12:57:38.939 -> 327
12:57:38.979 -> 339
12:57:38.979 -> 343
12:57:38.979 -> 330
12:57:38.979 -> 326
12:57:38.979 -> 337
12:57:38.979 -> 342
12:57:38.979 -> 332
12:57:38.979 -> 331
12:57:39.019 -> 342
12:57:39.019 -> 343
12:57:39.019 -> 331
12:57:39.019 -> 333
12:57:39.019 -> 346
12:57:39.019 -> 346
12:57:39.019 -> 337
12:57:39.019 -> 342
12:57:39.059 -> 352
12:57:39.059 -> 344
12:57:39.059 -> 329
12:57:39.059 -> 327
12:57:39.059 -> 334
12:57:39.059 -> 327
12:57:39.059 -> 316
12:57:39.059 -> 319
12:57:39.099 -> 331
12:57:39.099 -> 323
12:57:39.099 -> 314
12:57:39.099 -> 321
12:57:39.099 -> 330
12:57:39.099 -> 321
12:57:39.099 -> 312
12:57:39.099 -> 317
12:57:39.139 -> 322
12:57:39.139 -> 318
12:57:39.139 -> 327
12:57:39.139 -> 366
12:57:39.139 -> 411
12:57:39.139 -> 425
12:57:39.139 -> 414
12:57:39.179 -> 397
12:57:39.179 -> 370
12:57:39.179 -> 319
12:57:39.179 -> 278
12:57:39.179 -> 297
12:57:39.179 -> 319
12:57:39.179 -> 314
12:57:39.179 -> 316
12:57:39.219 -> 327
12:57:39.219 -> 325
12:57:39.219 -> 312
12:57:39.219 -> 314
12:57:39.219 -> 325
12:57:39.219 -> 324
12:57:39.219 -> 313
12:57:39.219 -> 314
12:57:39.259 -> 325
12:57:39.259 -> 323
12:57:39.259 -> 313
12:57:39.259 -> 317
12:57:39.259 -> 328
12:57:39.259 -> 314
12:57:39.259 -> 321
12:57:39.299 -> 332
12:57:39.299 -> 325
12:57:39.299 -> 316
12:57:39.299 -> 322
12:57:39.299 -> 332
12:57:39.299 -> 324
12:57:39.299 -> 318
12:57:39.299 -> 328
12:57:39.339 -> 337
12:57:39.339 -> 329
12:57:39.339 -> 323
12:57:39.339 -> 335
12:57:39.339 -> 344
12:57:39.339 -> 335
12:57:39.339 -> 332
12:57:39.379 -> 344
12:57:39.379 -> 351
12:57:39.379 -> 341
12:57:39.379 -> 340
12:57:39.379 -> 353
12:57:39.379 -> 357
12:57:39.379 -> 346
12:57:39.379 -> 344
12:57:39.419 -> 357
12:57:39.419 -> 359
12:57:39.419 -> 349
12:57:39.419 -> 348
12:57:39.419 -> 358
12:57:39.419 -> 353
12:57:39.419 -> 335
12:57:39.419 -> 331
12:57:39.459 -> 336
12:57:39.459 -> 328
12:57:39.459 -> 310
12:57:39.459 -> 308
12:57:39.459 -> 315
12:57:39.459 -> 305
12:57:39.459 -> 292
12:57:39.459 -> 293
12:57:39.499 -> 302
12:57:39.499 -> 296
12:57:39.499 -> 286
12:57:39.499 -> 290
12:57:39.499 -> 300
12:57:39.499 -> 294
12:57:39.499 -> 286
12:57:39.539 -> 293
12:57:39.539 -> 301
12:57:39.539 -> 292
12:57:39.539 -> 285
12:57:39.539 -> 294
12:57:39.539 -> 301
12:57:39.539 -> 291
12:57:39.539 -> 286
12:57:39.579 -> 296
12:57:39.579 -> 301
12:57:39.579 -> 289
12:57:39.579 -> 287
12:57:39.579 -> 298
12:57:39.579 -> 302
12:57:39.579 -> 291
12:57:39.579 -> 287
12:57:39.619 -> 299
12:57:39.619 -> 289
12:57:39.619 -> 289
12:57:39.619 -> 299
12:57:39.619 -> 301
12:57:39.619 -> 289
12:57:39.619 -> 290
12:57:39.619 -> 302
12:57:39.659 -> 300
12:57:39.659 -> 289
12:57:39.659 -> 292
12:57:39.659 -> 304
12:57:39.659 -> 300
12:57:39.659 -> 291
12:57:39.659 -> 295
12:57:39.699 -> 306
12:57:39.699 -> 300
12:57:39.699 -> 290
12:57:39.699 -> 298
12:57:39.699 -> 309
12:57:39.699 -> 303
12:57:39.699 -> 295
12:57:39.699 -> 301
12:57:39.739 -> 309
12:57:39.739 -> 301
12:57:39.739 -> 293
12:57:39.739 -> 302
12:57:39.739 -> 311
12:57:39.739 -> 301
12:57:39.739 -> 297
12:57:39.739 -> 306
12:57:39.779 -> 310
12:57:39.779 -> 300
12:57:39.779 -> 295
12:57:39.779 -> 305
12:57:39.779 -> 310
12:57:39.779 -> 300
12:57:39.779 -> 298
12:57:39.819 -> 309
12:57:39.819 -> 311
12:57:39.819 -> 300
12:57:39.819 -> 299
12:57:39.819 -> 311
12:57:39.819 -> 311
12:57:39.819 -> 300
12:57:39.819 -> 300
12:57:39.859 -> 312
12:57:39.859 -> 310
12:57:39.859 -> 301
12:57:39.859 -> 303
12:57:39.859 -> 315
12:57:39.859 -> 311
12:57:39.859 -> 299
12:57:39.899 -> 303
12:57:39.899 -> 316
12:57:39.899 -> 313
12:57:39.899 -> 304
12:57:39.899 -> 309
12:57:39.899 -> 318
12:57:39.899 -> 312
12:57:39.899 -> 303
12:57:39.939 -> 308
12:57:39.939 -> 317
12:57:39.939 -> 309
12:57:39.939 -> 312
12:57:39.939 -> 321
12:57:39.939 -> 312
12:57:39.939 -> 305
12:57:39.939 -> 313
12:57:39.979 -> 319
12:57:39.979 -> 309
12:57:39.979 -> 305
12:57:39.979 -> 316
12:57:39.979 -> 319
12:57:39.979 -> 307
12:57:39.979 -> 306
12:57:40.019 -> 318
12:57:40.019 -> 320
12:57:40.019 -> 308
12:57:40.019 -> 307
12:57:40.019 -> 317
12:57:40.019 -> 318
12:57:40.019 -> 308
12:57:40.019 -> 310
12:57:40.059 -> 320
12:57:40.059 -> 319
12:57:40.059 -> 309
12:57:40.059 -> 311
12:57:40.059 -> 324
12:57:40.059 -> 323
12:57:40.059 -> 313
12:57:40.059 -> 315
12:57:40.099 -> 327
12:57:40.099 -> 324
12:57:40.099 -> 316
12:57:40.099 -> 320
12:57:40.099 -> 332
12:57:40.099 -> 328
12:57:40.099 -> 323
12:57:40.099 -> 332
12:57:40.139 -> 342
12:57:40.139 -> 330
12:57:40.139 -> 317
12:57:40.139 -> 318
12:57:40.139 -> 322
12:57:40.139 -> 312
12:57:40.139 -> 306
12:57:40.179 -> 314
12:57:40.179 -> 322
12:57:40.179 -> 311
12:57:40.179 -> 306
12:57:40.179 -> 316
12:57:40.179 -> 323
12:57:40.179 -> 311
12:57:40.179 -> 307
12:57:40.219 -> 314
12:57:40.219 -> 314
12:57:40.219 -> 308
12:57:40.219 -> 318
12:57:40.219 -> 356
12:57:40.219 -> 399
12:57:40.219 -> 422
12:57:40.219 -> 426
12:57:40.259 -> 412
12:57:40.259 -> 376
12:57:40.259 -> 322
12:57:40.259 -> 279
12:57:40.259 -> 291
12:57:40.259 -> 306
12:57:40.259 -> 313
12:57:40.259 -> 325
12:57:40.299 -> 319
12:57:40.299 -> 308
12:57:40.299 -> 313
12:57:40.299 -> 324
12:57:40.299 -> 318
12:57:40.299 -> 309
12:57:40.299 -> 317
12:57:40.339 -> 326
12:57:40.339 -> 318
12:57:40.339 -> 310
12:57:40.339 -> 319
12:57:40.339 -> 329
12:57:40.339 -> 322
12:57:40.339 -> 316
12:57:40.339 -> 324
12:57:40.379 -> 331
12:57:40.379 -> 322
12:57:40.379 -> 318
12:57:40.379 -> 329
12:57:40.379 -> 334
12:57:40.379 -> 323
12:57:40.379 -> 320
12:57:40.419 -> 333
12:57:40.419 -> 336
12:57:40.419 -> 327
12:57:40.419 -> 326
12:57:40.419 -> 339
12:57:40.419 -> 343
12:57:40.419 -> 334
12:57:40.419 -> 335
12:57:40.459 -> 349
12:57:40.459 -> 352
12:57:40.459 -> 345
12:57:40.459 -> 349
12:57:40.459 -> 362
12:57:40.459 -> 361
12:57:40.459 -> 352
12:57:40.459 -> 356
12:57:40.499 -> 367
12:57:40.499 -> 363
12:57:40.499 -> 354
12:57:40.499 -> 358
12:57:40.499 -> 368
12:57:40.499 -> 359
12:57:40.499 -> 346
12:57:40.539 -> 345
12:57:40.539 -> 347
12:57:40.539 -> 335
12:57:40.539 -> 319
12:57:40.539 -> 322
12:57:40.539 -> 327
12:57:40.539 -> 314
12:57:40.539 -> 303
12:57:40.579 -> 308
12:57:40.579 -> 313
12:57:40.579 -> 302
12:57:40.579 -> 295
12:57:40.579 -> 305
12:57:40.579 -> 311
12:57:40.579 -> 300
12:57:40.579 -> 295
12:57:40.619 -> 309
12:57:40.619 -> 298
12:57:40.619 -> 297
12:57:40.619 -> 310
12:57:40.619 -> 313
12:57:40.619 -> 301
12:57:40.619 -> 299
12:57:40.619 -> 310
12:57:40.659 -> 312
12:57:40.659 -> 300
12:57:40.659 -> 301
12:57:40.659 -> 313
12:57:40.659 -> 312
12:57:40.659 -> 300
12:57:40.659 -> 302
12:57:40.699 -> 312
12:57:40.699 -> 307
12:57:40.699 -> 297
12:57:40.699 -> 303
12:57:40.699 -> 314
12:57:40.699 -> 309
12:57:40.699 -> 300
12:57:40.699 -> 304
12:57:40.739 -> 314
12:57:40.739 -> 307
12:57:40.739 -> 297
12:57:40.739 -> 304
12:57:40.739 -> 314
12:57:40.739 -> 306
12:57:40.739 -> 299
12:57:40.739 -> 306
12:57:40.779 -> 314
12:57:40.779 -> 306
12:57:40.779 -> 300
12:57:40.779 -> 309
12:57:40.779 -> 314
12:57:40.779 -> 304
12:57:40.779 -> 299
12:57:40.779 -> 307
12:57:40.819 -> 311
12:57:40.819 -> 301
12:57:40.819 -> 299
12:57:40.819 -> 310
12:57:40.819 -> 312
12:57:40.819 -> 300
12:57:40.819 -> 299
12:57:40.859 -> 310
12:57:40.859 -> 310
12:57:40.859 -> 297
12:57:40.859 -> 298
12:57:40.859 -> 309
12:57:40.859 -> 308
12:57:40.859 -> 296
12:57:40.859 -> 303
12:57:40.899 -> 320
12:57:40.899 -> 306
12:57:40.899 -> 288
12:57:40.899 -> 292
12:57:40.899 -> 305
12:57:40.899 -> 302
12:57:40.899 -> 292
12:57:40.939 -> 298
12:57:40.939 -> 308
12:57:40.939 -> 300
12:57:40.939 -> 297
12:57:40.939 -> 306
12:57:40.939 -> 299
12:57:40.939 -> 291
12:57:40.939 -> 298
12:57:40.979 -> 306
12:57:40.979 -> 297
12:57:40.979 -> 291
12:57:40.979 -> 299
12:57:40.979 -> 304
12:57:40.979 -> 294
12:57:40.979 -> 289
12:57:40.979 -> 299
12:57:41.019 -> 304
12:57:41.019 -> 292
12:57:41.019 -> 289
12:57:41.019 -> 300
12:57:41.019 -> 302
12:57:41.019 -> 289
12:57:41.019 -> 289
12:57:41.059 -> 301
12:57:41.059 -> 304
12:57:41.059 -> 299
12:57:41.059 -> 290
12:57:41.059 -> 293
12:57:41.059 -> 292
12:57:41.059 -> 284
12:57:41.059 -> 288
12:57:41.099 -> 300
12:57:41.099 -> 298
12:57:41.099 -> 289
12:57:41.099 -> 296
12:57:41.099 -> 311
12:57:41.099 -> 305
12:57:41.099 -> 297
12:57:41.099 -> 305
12:57:41.139 -> 316
12:57:41.139 -> 310
12:57:41.139 -> 302
12:57:41.139 -> 311
12:57:41.139 -> 318
12:57:41.139 -> 305
12:57:41.139 -> 293
12:57:41.139 -> 297
12:57:41.179 -> 307
12:57:41.179 -> 290
12:57:41.179 -> 274
12:57:41.179 -> 283
12:57:41.179 -> 295
12:57:41.179 -> 288
12:57:41.179 -> 283
12:57:41.219 -> 292
12:57:41.219 -> 296
12:57:41.219 -> 283
12:57:41.219 -> 276
12:57:41.219 -> 288
12:57:41.219 -> 306
12:57:41.219 -> 326
12:57:41.219 -> 361
12:57:41.254 -> 399
12:57:41.254 -> 395
12:57:41.254 -> 360
12:57:41.254 -> 330
12:57:41.254 -> 302
12:57:41.254 -> 248
12:57:41.254 -> 276
12:57:41.289 -> 306
12:57:41.289 -> 298
12:57:41.289 -> 279
12:57:41.289 -> 284
12:57:41.289 -> 300
12:57:41.289 -> 297
12:57:41.329 -> 288
12:57:41.329 -> 292
12:57:41.329 -> 304
12:57:41.329 -> 298
12:57:41.329 -> 290
12:57:41.329 -> 296
12:57:41.329 -> 309
12:57:41.329 -> 301
12:57:41.369 -> 294
12:57:41.369 -> 302
12:57:41.369 -> 310
12:57:41.369 -> 301
12:57:41.369 -> 298
12:57:41.369 -> 308
12:57:41.369 -> 315
12:57:41.369 -> 304
12:57:41.409 -> 301
12:57:41.409 -> 317
12:57:41.409 -> 329
12:57:41.409 -> 307
12:57:41.409 -> 298
12:57:41.409 -> 313
12:57:41.409 -> 322
12:57:41.409 -> 313
12:57:41.449 -> 313
12:57:41.449 -> 326
12:57:41.449 -> 331
12:57:41.449 -> 324
12:57:41.449 -> 327
12:57:41.449 -> 341
12:57:41.449 -> 345
12:57:41.489 -> 338
12:57:41.489 -> 341
12:57:41.489 -> 355
12:57:41.489 -> 351
12:57:41.489 -> 341
12:57:41.489 -> 346
12:57:41.489 -> 356
12:57:41.489 -> 350
12:57:41.529 -> 341
12:57:41.529 -> 350
12:57:41.529 -> 352
12:57:41.529 -> 326
12:57:41.529 -> 307
12:57:41.529 -> 311
12:57:41.529 -> 319
12:57:41.529 -> 307
12:57:41.569 -> 295
12:57:41.569 -> 297
12:57:41.569 -> 302
12:57:41.569 -> 291
12:57:41.569 -> 282
12:57:41.569 -> 289
12:57:41.569 -> 295
12:57:41.609 -> 285
12:57:41.609 -> 280
12:57:41.609 -> 298
12:57:41.609 -> 287
12:57:41.609 -> 288
12:57:41.609 -> 300
12:57:41.609 -> 294
12:57:41.609 -> 280
12:57:41.649 -> 281
12:57:41.649 -> 296
12:57:41.649 -> 302
12:57:41.649 -> 292
12:57:41.649 -> 290
12:57:41.649 -> 304
12:57:41.649 -> 303
12:57:41.689 -> 293
12:57:41.689 -> 301
12:57:41.689 -> 312
12:57:41.689 -> 297
12:57:41.689 -> 282
12:57:41.689 -> 288
12:57:41.689 -> 303
12:57:41.689 -> 301
12:57:41.729 -> 290
12:57:41.729 -> 295
12:57:41.729 -> 307
12:57:41.729 -> 302
12:57:41.729 -> 292
12:57:41.729 -> 298
12:57:41.729 -> 309
12:57:41.729 -> 304
12:57:41.769 -> 294
12:57:41.769 -> 302
12:57:41.769 -> 310
12:57:41.769 -> 302
12:57:41.769 -> 298
12:57:41.769 -> 310
12:57:41.769 -> 321
12:57:41.769 -> 299
12:57:41.809 -> 290
12:57:41.809 -> 303
12:57:41.809 -> 311
12:57:41.809 -> 303
12:57:41.809 -> 299
12:57:41.809 -> 310
12:57:41.809 -> 314
12:57:41.849 -> 304
12:57:41.849 -> 302
12:57:41.849 -> 316
12:57:41.849 -> 317
12:57:41.849 -> 304
12:57:41.849 -> 306
12:57:41.849 -> 319
12:57:41.849 -> 319
12:57:41.889 -> 309
12:57:41.889 -> 315
12:57:41.889 -> 323
12:57:41.889 -> 311
12:57:41.889 -> 299
12:57:41.889 -> 305
12:57:41.889 -> 319
12:57:41.889 -> 318
12:57:41.929 -> 310
12:57:41.929 -> 314
12:57:41.929 -> 326
12:57:41.929 -> 322
12:57:41.929 -> 322
12:57:41.929 -> 333
12:57:41.929 -> 326
12:57:41.929 -> 320
12:57:41.969 -> 329
12:57:41.969 -> 342
12:57:41.969 -> 333
12:57:41.969 -> 321
12:57:41.969 -> 323
12:57:41.969 -> 327
12:57:41.969 -> 318
12:57:42.009 -> 315
12:57:42.009 -> 313
12:57:42.009 -> 314
12:57:42.009 -> 307
12:57:42.009 -> 305
12:57:42.009 -> 316
12:57:42.009 -> 321
12:57:42.009 -> 310
12:57:42.049 -> 307
12:57:42.049 -> 318
12:57:42.049 -> 321
12:57:42.049 -> 309
12:57:42.049 -> 308
12:57:42.049 -> 329
12:57:42.049 -> 354
12:57:42.049 -> 374
12:57:42.089 -> 397
12:57:42.089 -> 404
12:57:42.089 -> 381
12:57:42.089 -> 341
12:57:42.089 -> 314
12:57:42.089 -> 288
12:57:42.089 -> 278
12:57:42.129 -> 290
12:57:42.129 -> 314
12:57:42.129 -> 328
12:57:42.129 -> 326
12:57:42.129 -> 328
12:57:42.129 -> 328
12:57:42.129 -> 329
12:57:42.129 -> 324
12:57:42.169 -> 318
12:57:42.169 -> 326
12:57:42.169 -> 338
12:57:42.169 -> 332
12:57:42.169 -> 325
12:57:42.169 -> 332
12:57:42.169 -> 341
12:57:42.209 -> 332
12:57:42.209 -> 326
12:57:42.209 -> 336
12:57:42.209 -> 345
12:57:42.209 -> 335
12:57:42.209 -> 331
12:57:42.209 -> 343
12:57:42.209 -> 349
12:57:42.249 -> 339
12:57:42.249 -> 336
12:57:42.249 -> 348
12:57:42.249 -> 352
12:57:42.249 -> 344
12:57:42.249 -> 344
12:57:42.249 -> 356
12:57:42.249 -> 352
12:57:42.289 -> 354
12:57:42.289 -> 369
12:57:42.289 -> 371
12:57:42.289 -> 363
12:57:42.289 -> 367
12:57:42.289 -> 381
12:57:42.289 -> 382
12:57:42.329 -> 374
12:57:42.329 -> 378
12:57:42.329 -> 389
12:57:42.329 -> 384
12:57:42.329 -> 375
12:57:42.329 -> 380
12:57:42.329 -> 390
12:57:42.329 -> 380
12:57:42.369 -> 365
12:57:42.369 -> 365
12:57:42.369 -> 368
12:57:42.369 -> 352
12:57:42.369 -> 337
12:57:42.369 -> 340
12:57:42.369 -> 342
12:57:42.369 -> 327
12:57:42.409 -> 316
12:57:42.409 -> 324
12:57:42.409 -> 333
12:57:42.409 -> 332
12:57:42.409 -> 315
12:57:42.409 -> 313
12:57:42.409 -> 319
12:57:42.409 -> 312
12:57:42.449 -> 310
12:57:42.449 -> 321
12:57:42.449 -> 326
12:57:42.449 -> 316
12:57:42.449 -> 314
12:57:42.449 -> 325
12:57:42.449 -> 329
12:57:42.449 -> 319
12:57:42.489 -> 320
12:57:42.489 -> 333
12:57:42.489 -> 333
12:57:42.489 -> 321
12:57:42.489 -> 324
12:57:42.489 -> 336
12:57:42.489 -> 334
12:57:42.529 -> 323
12:57:42.529 -> 327
12:57:42.529 -> 340
12:57:42.529 -> 336
12:57:42.529 -> 325
12:57:42.529 -> 331
12:57:42.529 -> 342
12:57:42.529 -> 336
12:57:42.569 -> 326
12:57:42.569 -> 332
12:57:42.569 -> 343
12:57:42.569 -> 336
12:57:42.569 -> 327
12:57:42.569 -> 331
12:57:42.569 -> 340
12:57:42.569 -> 331
12:57:42.609 -> 324
12:57:42.609 -> 342
12:57:42.609 -> 333
12:57:42.609 -> 327
12:57:42.609 -> 336
12:57:42.609 -> 344
12:57:42.609 -> 334
12:57:42.649 -> 329
12:57:42.649 -> 339
12:57:42.649 -> 341
12:57:42.649 -> 333
12:57:42.649 -> 332
12:57:42.649 -> 344
12:57:42.649 -> 345
12:57:42.649 -> 334
12:57:42.689 -> 334
12:57:42.689 -> 346
12:57:42.689 -> 346
12:57:42.689 -> 335
12:57:42.689 -> 336
12:57:42.689 -> 349
12:57:42.689 -> 350
12:57:42.729 -> 339
12:57:42.729 -> 341
12:57:42.729 -> 355
12:57:42.729 -> 355
12:57:42.729 -> 344
12:57:42.729 -> 349
12:57:42.729 -> 362
12:57:42.729 -> 358
12:57:42.769 -> 352
12:57:42.769 -> 358
12:57:42.769 -> 363
12:57:42.769 -> 353
12:57:42.769 -> 339
12:57:42.769 -> 343
12:57:42.769 -> 349
12:57:42.769 -> 341
12:57:42.809 -> 334
12:57:42.809 -> 342
12:57:42.809 -> 349
12:57:42.809 -> 340
12:57:42.809 -> 336
12:57:42.809 -> 345
12:57:42.809 -> 350
12:57:42.849 -> 338
12:57:42.849 -> 333
12:57:42.849 -> 342
12:57:42.849 -> 345
12:57:42.849 -> 340
12:57:42.849 -> 352
12:57:42.849 -> 392
12:57:42.849 -> 429
12:57:42.889 -> 429
12:57:42.889 -> 407
12:57:42.889 -> 392
12:57:42.889 -> 368
12:57:42.889 -> 319
12:57:42.889 -> 291
12:57:42.889 -> 319
12:57:42.889 -> 337
12:57:42.929 -> 334
12:57:42.929 -> 339
12:57:42.929 -> 350
12:57:42.929 -> 346
12:57:42.929 -> 339
12:57:42.929 -> 350
12:57:42.929 -> 344
12:57:42.929 -> 335
12:57:42.969 -> 340
12:57:42.969 -> 350
12:57:42.969 -> 343
12:57:42.969 -> 335
12:57:42.969 -> 342
12:57:42.969 -> 352
12:57:42.969 -> 344
12:57:42.969 -> 337
12:57:43.009 -> 346
12:57:43.009 -> 354
12:57:43.009 -> 345
12:57:43.009 -> 338
12:57:43.009 -> 348
12:57:43.009 -> 355
12:57:43.009 -> 346
12:57:43.049 -> 342
12:57:43.049 -> 353
12:57:43.049 -> 358
12:57:43.049 -> 348
12:57:43.049 -> 345
12:57:43.049 -> 359
12:57:43.049 -> 364
12:57:43.049 -> 354
12:57:43.089 -> 355
12:57:43.089 -> 369
12:57:43.089 -> 373
12:57:43.089 -> 364
12:57:43.089 -> 366
12:57:43.089 -> 380
12:57:43.089 -> 379
12:57:43.089 -> 369
12:57:43.129 -> 371
12:57:43.129 -> 383
12:57:43.129 -> 379
12:57:43.129 -> 368
12:57:43.129 -> 369
12:57:43.129 -> 375
12:57:43.129 -> 364
12:57:43.169 -> 348
12:57:43.169 -> 348
12:57:43.169 -> 352
12:57:43.169 -> 339
12:57:43.169 -> 322
12:57:43.169 -> 325
12:57:43.169 -> 332
12:57:43.209 -> 320
12:57:43.209 -> 309
12:57:43.209 -> 315
12:57:43.209 -> 322
12:57:43.209 -> 311
12:57:43.209 -> 304
12:57:43.209 -> 313
12:57:43.209 -> 320
12:57:43.249 -> 310
12:57:43.249 -> 306
12:57:43.249 -> 315
12:57:43.249 -> 319
12:57:43.249 -> 308
12:57:43.249 -> 305
12:57:43.249 -> 316
12:57:43.249 -> 310
12:57:43.289 -> 309
12:57:43.289 -> 320
12:57:43.289 -> 320
12:57:43.289 -> 307
12:57:43.289 -> 308
12:57:43.289 -> 320
12:57:43.289 -> 319
12:57:43.289 -> 307
12:57:43.329 -> 307
12:57:43.329 -> 319
12:57:43.329 -> 315
12:57:43.329 -> 305
12:57:43.329 -> 309
12:57:43.329 -> 321
12:57:43.329 -> 315
12:57:43.369 -> 305
12:57:43.369 -> 310
12:57:43.369 -> 320
12:57:43.369 -> 314
12:57:43.369 -> 303
12:57:43.369 -> 309
12:57:43.369 -> 319
12:57:43.369 -> 313
12:57:43.409 -> 306
12:57:43.409 -> 312
12:57:43.409 -> 320
12:57:43.409 -> 311
12:57:43.409 -> 304
12:57:43.409 -> 312
12:57:43.409 -> 320
12:57:43.409 -> 310
12:57:43.449 -> 304
12:57:43.449 -> 313
12:57:43.449 -> 319
12:57:43.449 -> 309
12:57:43.449 -> 306
12:57:43.449 -> 316
12:57:43.449 -> 318
12:57:43.449 -> 306
12:57:43.489 -> 305
12:57:43.489 -> 317
12:57:43.489 -> 319
12:57:43.489 -> 307
12:57:43.489 -> 306
12:57:43.489 -> 318
12:57:43.489 -> 318
12:57:43.529 -> 307
12:57:43.529 -> 309
12:57:43.529 -> 320
12:57:43.529 -> 317
12:57:43.529 -> 307
12:57:43.529 -> 310
12:57:43.529 -> 321
12:57:43.529 -> 315
12:57:43.569 -> 304
12:57:43.569 -> 308
12:57:43.569 -> 319
12:57:43.569 -> 314
12:57:43.569 -> 306
12:57:43.569 -> 313
12:57:43.569 -> 322
12:57:43.569 -> 314
12:57:43.609 -> 305
12:57:43.609 -> 321
12:57:43.609 -> 312
12:57:43.609 -> 305
12:57:43.609 -> 314
12:57:43.609 -> 323
12:57:43.609 -> 312
12:57:43.609 -> 307
12:57:43.649 -> 316
12:57:43.649 -> 323
12:57:43.649 -> 313
12:57:43.649 -> 309
12:57:43.649 -> 318
12:57:43.649 -> 322
12:57:43.649 -> 311
12:57:43.689 -> 308
12:57:43.689 -> 320
12:57:43.689 -> 322
12:57:43.689 -> 310
12:57:43.689 -> 309
12:57:43.689 -> 321
12:57:43.689 -> 320
12:57:43.729 -> 308
12:57:43.729 -> 308
12:57:43.729 -> 322
12:57:43.729 -> 320
12:57:43.729 -> 309
12:57:43.729 -> 310
12:57:43.729 -> 322
12:57:43.729 -> 318
12:57:43.769 -> 307
12:57:43.769 -> 312
12:57:43.769 -> 323
12:57:43.769 -> 318
12:57:43.769 -> 308
12:57:43.769 -> 313
12:57:43.769 -> 323
12:57:43.769 -> 316
12:57:43.809 -> 307
12:57:43.809 -> 316
12:57:43.809 -> 328
12:57:43.809 -> 322
12:57:43.809 -> 313
12:57:43.809 -> 320
12:57:43.809 -> 329
12:57:43.809 -> 320
12:57:43.849 -> 314
12:57:43.849 -> 326
12:57:43.849 -> 333
12:57:43.849 -> 325
12:57:43.849 -> 324
12:57:43.849 -> 335
12:57:43.849 -> 337
12:57:43.889 -> 321
12:57:43.889 -> 311
12:57:43.889 -> 318
12:57:43.889 -> 321
12:57:43.889 -> 308
12:57:43.889 -> 306
12:57:43.889 -> 317
12:57:43.889 -> 316
12:57:43.929 -> 304
12:57:43.929 -> 306
12:57:43.929 -> 318
12:57:43.929 -> 317
12:57:43.929 -> 306
12:57:43.929 -> 313
12:57:43.929 -> 312
12:57:43.929 -> 314
12:57:43.969 -> 344
12:57:43.969 -> 394
12:57:43.969 -> 424
12:57:43.969 -> 415
12:57:43.969 -> 395
12:57:43.969 -> 374
12:57:43.969 -> 326
12:57:43.969 -> 273
12:57:44.009 -> 279
12:57:44.009 -> 309
12:57:44.009 -> 310
12:57:44.009 -> 306
12:57:44.009 -> 315
12:57:44.009 -> 323
12:57:44.009 -> 314
12:57:44.049 -> 306
12:57:44.049 -> 314
12:57:44.049 -> 322
12:57:44.049 -> 312
12:57:44.049 -> 308
12:57:44.049 -> 318
12:57:44.049 -> 323
12:57:44.049 -> 313
12:57:44.089 -> 311
12:57:44.089 -> 322
12:57:44.089 -> 325
12:57:44.089 -> 314
12:57:44.089 -> 312
12:57:44.089 -> 325
12:57:44.089 -> 327
12:57:44.089 -> 318
12:57:44.129 -> 318
12:57:44.129 -> 329
12:57:44.129 -> 329
12:57:44.129 -> 319
12:57:44.129 -> 321
12:57:44.129 -> 335
12:57:44.129 -> 333
12:57:44.169 -> 322
12:57:44.169 -> 328
12:57:44.169 -> 340
12:57:44.169 -> 337
12:57:44.169 -> 329
12:57:44.169 -> 337
12:57:44.169 -> 352
12:57:44.169 -> 348
12:57:44.209 -> 341
12:57:44.209 -> 350
12:57:44.209 -> 363
12:57:44.209 -> 354
12:57:44.209 -> 348
12:57:44.209 -> 356
12:57:44.209 -> 366
12:57:44.249 -> 357
12:57:44.249 -> 350
12:57:44.249 -> 358
12:57:44.249 -> 361
12:57:44.249 -> 347
12:57:44.249 -> 339
12:57:44.249 -> 343
12:57:44.249 -> 322
12:57:44.289 -> 313
12:57:44.289 -> 318
12:57:44.289 -> 317
12:57:44.289 -> 302
12:57:44.289 -> 298
12:57:44.289 -> 307
12:57:44.289 -> 307
12:57:44.289 -> 295
12:57:44.329 -> 294
12:57:44.329 -> 304
12:57:44.329 -> 304
12:57:44.329 -> 293
12:57:44.329 -> 293
12:57:44.329 -> 304
12:57:44.329 -> 301
12:57:44.369 -> 292
12:57:44.369 -> 296
12:57:44.369 -> 309
12:57:44.369 -> 303
12:57:44.369 -> 293
12:57:44.369 -> 298
12:57:44.369 -> 309
12:57:44.369 -> 304
12:57:44.409 -> 296
12:57:44.409 -> 302
12:57:44.409 -> 318
12:57:44.409 -> 348
12:57:44.409 -> 353
12:57:44.409 -> 355
12:57:44.409 -> 356
12:57:44.409 -> 319
12:57:44.449 -> 290
12:57:44.449 -> 297
12:57:44.449 -> 308
12:57:44.449 -> 299
12:57:44.449 -> 294
12:57:44.449 -> 305
12:57:44.449 -> 311
12:57:44.449 -> 300
12:57:44.489 -> 296
12:57:44.489 -> 306
12:57:44.489 -> 309
12:57:44.489 -> 298
12:57:44.489 -> 298
12:57:44.489 -> 309
12:57:44.489 -> 311
12:57:44.489 -> 300
12:57:44.529 -> 301
12:57:44.529 -> 312
12:57:44.529 -> 309
12:57:44.529 -> 297
12:57:44.529 -> 299
12:57:44.529 -> 312
12:57:44.529 -> 311
12:57:44.569 -> 299
12:57:44.569 -> 302
12:57:44.569 -> 314
12:57:44.569 -> 311
12:57:44.569 -> 303
12:57:44.569 -> 308
12:57:44.569 -> 318
12:57:44.569 -> 310
12:57:44.609 -> 301
12:57:44.609 -> 317
12:57:44.609 -> 310
12:57:44.609 -> 302
12:57:44.609 -> 309
12:57:44.609 -> 317
12:57:44.609 -> 309
12:57:44.609 -> 302
12:57:44.649 -> 311
12:57:44.649 -> 320
12:57:44.649 -> 310
12:57:44.649 -> 304
12:57:44.649 -> 312
12:57:44.649 -> 319
12:57:44.649 -> 310
12:57:44.689 -> 307
12:57:44.689 -> 316
12:57:44.689 -> 319
12:57:44.689 -> 307
12:57:44.689 -> 305
12:57:44.689 -> 317
12:57:44.689 -> 321
12:57:44.689 -> 310
12:57:44.729 -> 309
12:57:44.729 -> 319
12:57:44.729 -> 319
12:57:44.729 -> 309
12:57:44.729 -> 310
12:57:44.729 -> 321
12:57:44.729 -> 318
12:57:44.769 -> 308
12:57:44.769 -> 312
12:57:44.769 -> 324
12:57:44.769 -> 319
12:57:44.769 -> 309
12:57:44.769 -> 313
12:57:44.769 -> 324
12:57:44.769 -> 319
12:57:44.809 -> 311
12:57:44.809 -> 317
12:57:44.809 -> 325
12:57:44.809 -> 317
12:57:44.809 -> 307
12:57:44.809 -> 315
12:57:44.809 -> 326
12:57:44.809 -> 319
12:57:44.849 -> 312
12:57:44.849 -> 320
12:57:44.849 -> 327
12:57:44.849 -> 316
12:57:44.849 -> 311
12:57:44.849 -> 325
12:57:44.849 -> 334
12:57:44.849 -> 325
12:57:44.889 -> 326
12:57:44.889 -> 340
12:57:44.889 -> 344
12:57:44.889 -> 332
12:57:44.889 -> 330
12:57:44.889 -> 341
12:57:44.889 -> 343
12:57:44.929 -> 329
12:57:44.929 -> 324
12:57:44.929 -> 329
12:57:44.929 -> 325
12:57:44.929 -> 311
12:57:44.929 -> 322
12:57:44.929 -> 320
12:57:44.929 -> 311
12:57:44.969 -> 313
12:57:44.969 -> 324
12:57:44.969 -> 321
12:57:44.969 -> 309
12:57:44.969 -> 310
12:57:44.969 -> 320
12:57:44.969 -> 321
12:57:44.969 -> 331
12:57:45.009 -> 371
12:57:45.009 -> 423
12:57:45.009 -> 435
12:57:45.009 -> 409
12:57:45.009 -> 384
12:57:45.009 -> 357
12:57:45.009 -> 301
12:57:45.009 -> 269
12:57:45.049 -> 296
12:57:45.049 -> 321
12:57:45.049 -> 318
12:57:45.049 -> 313
12:57:45.049 -> 323
12:57:45.049 -> 328
12:57:45.049 -> 316
12:57:45.089 -> 312
12:57:45.089 -> 324
12:57:45.089 -> 327
12:57:45.089 -> 316
12:57:45.089 -> 316
12:57:45.089 -> 328
12:57:45.089 -> 330
12:57:45.089 -> 319
12:57:45.129 -> 318
12:57:45.129 -> 330
12:57:45.129 -> 330
12:57:45.129 -> 319
12:57:45.129 -> 320
12:57:45.129 -> 333
12:57:45.129 -> 333
12:57:45.129 -> 322
12:57:45.169 -> 325
12:57:45.169 -> 338
12:57:45.169 -> 336
12:57:45.169 -> 325
12:57:45.169 -> 329
12:57:45.169 -> 343
12:57:45.169 -> 340
12:57:45.209 -> 330
12:57:45.209 -> 337
12:57:45.209 -> 351
12:57:45.209 -> 345
12:57:45.209 -> 339
12:57:45.209 -> 351
12:57:45.209 -> 363
12:57:45.209 -> 356
12:57:45.249 -> 350
12:57:45.249 -> 360
12:57:45.249 -> 371
12:57:45.249 -> 364
12:57:45.249 -> 358
12:57:45.249 -> 367
12:57:45.249 -> 362
12:57:45.289 -> 356
12:57:45.289 -> 364
12:57:45.289 -> 365
12:57:45.289 -> 348
12:57:45.289 -> 339
12:57:45.289 -> 343
12:57:45.289 -> 339
12:57:45.289 -> 321
12:57:45.329 -> 313
12:57:45.329 -> 320
12:57:45.329 -> 319
12:57:45.329 -> 305
12:57:45.329 -> 303
12:57:45.329 -> 312
12:57:45.329 -> 308
12:57:45.329 -> 297
12:57:45.369 -> 300
12:57:45.369 -> 311
12:57:45.369 -> 308
12:57:45.369 -> 298
12:57:45.369 -> 300
12:57:45.369 -> 313
12:57:45.369 -> 308
12:57:45.409 -> 299
12:57:45.409 -> 304
12:57:45.409 -> 315
12:57:45.409 -> 309
12:57:45.409 -> 301
12:57:45.409 -> 305
12:57:45.409 -> 315
12:57:45.409 -> 309
12:57:45.449 -> 301
12:57:45.449 -> 309
12:57:45.449 -> 318
12:57:45.449 -> 309
12:57:45.449 -> 302
12:57:45.449 -> 310
12:57:45.449 -> 317
12:57:45.449 -> 308
12:57:45.489 -> 302
12:57:45.489 -> 313
12:57:45.489 -> 318
12:57:45.489 -> 305
12:57:45.489 -> 300
12:57:45.489 -> 309
12:57:45.489 -> 311
12:57:45.489 -> 300
12:57:45.529 -> 298
12:57:45.529 -> 309
12:57:45.529 -> 311
12:57:45.529 -> 298
12:57:45.529 -> 298
12:57:45.529 -> 310
12:57:45.529 -> 310
12:57:45.569 -> 299
12:57:45.569 -> 300
12:57:45.569 -> 311
12:57:45.569 -> 310
12:57:45.569 -> 301
12:57:45.569 -> 304
12:57:45.569 -> 314
12:57:45.569 -> 309
12:57:45.609 -> 300
12:57:45.609 -> 315
12:57:45.609 -> 309
12:57:45.609 -> 301
12:57:45.609 -> 308
12:57:45.609 -> 317
12:57:45.609 -> 308
12:57:45.609 -> 300
12:57:45.649 -> 311
12:57:45.649 -> 321
12:57:45.649 -> 312
12:57:45.649 -> 304
12:57:45.649 -> 314
12:57:45.649 -> 320
12:57:45.649 -> 310
12:57:45.649 -> 305
12:57:45.689 -> 316
12:57:45.689 -> 322
12:57:45.689 -> 310
12:57:45.689 -> 305
12:57:45.689 -> 315
12:57:45.689 -> 321
12:57:45.689 -> 311
12:57:45.729 -> 308
12:57:45.729 -> 320
12:57:45.729 -> 322
12:57:45.729 -> 311
12:57:45.729 -> 310
12:57:45.729 -> 321
12:57:45.729 -> 321
12:57:45.729 -> 310
12:57:45.769 -> 310
12:57:45.769 -> 322
12:57:45.769 -> 319
12:57:45.769 -> 308
12:57:45.769 -> 312
12:57:45.769 -> 324
12:57:45.769 -> 321
12:57:45.809 -> 310
12:57:45.809 -> 314
12:57:45.809 -> 324
12:57:45.809 -> 318
12:57:45.809 -> 310
12:57:45.809 -> 316
12:57:45.809 -> 326
12:57:45.809 -> 319
12:57:45.849 -> 311
12:57:45.849 -> 318
12:57:45.849 -> 327
12:57:45.849 -> 318
12:57:45.849 -> 311
12:57:45.849 -> 319
12:57:45.849 -> 327
12:57:45.849 -> 318
12:57:45.889 -> 312
12:57:45.889 -> 323
12:57:45.889 -> 330
12:57:45.889 -> 320
12:57:45.889 -> 319
12:57:45.889 -> 334
12:57:45.889 -> 342
12:57:45.929 -> 333
12:57:45.929 -> 326
12:57:45.929 -> 336
12:57:45.929 -> 340
12:57:45.929 -> 331
12:57:45.929 -> 340
12:57:45.929 -> 336
12:57:45.929 -> 317
12:57:45.969 -> 314
12:57:45.969 -> 325
12:57:45.969 -> 321
12:57:45.969 -> 309
12:57:45.969 -> 312
12:57:45.969 -> 323
12:57:45.969 -> 319
12:57:45.969 -> 308
12:57:46.009 -> 311
12:57:46.009 -> 321
12:57:46.009 -> 314
12:57:46.009 -> 305
12:57:46.009 -> 318
12:57:46.009 -> 348
12:57:46.009 -> 375
12:57:46.009 -> 407
12:57:46.049 -> 432
12:57:46.049 -> 423
12:57:46.049 -> 382
12:57:46.049 -> 336
12:57:46.049 -> 297
12:57:46.049 -> 281
12:57:46.049 -> 291
12:57:46.089 -> 303
12:57:46.089 -> 317
12:57:46.089 -> 325
12:57:46.089 -> 315
12:57:46.089 -> 310
12:57:46.089 -> 320
12:57:46.089 -> 325
12:57:46.089 -> 314
12:57:46.129 -> 311
12:57:46.129 -> 323
12:57:46.129 -> 326
12:57:46.129 -> 314
12:57:46.129 -> 313
12:57:46.129 -> 323
12:57:46.129 -> 324
12:57:46.129 -> 313
12:57:46.169 -> 314
12:57:46.169 -> 326
12:57:46.169 -> 326
12:57:46.169 -> 316
12:57:46.169 -> 317
12:57:46.169 -> 329
12:57:46.169 -> 327
12:57:46.169 -> 318
12:57:46.209 -> 324
12:57:46.209 -> 335
12:57:46.209 -> 330
12:57:46.209 -> 322
12:57:46.209 -> 329
12:57:46.209 -> 341
12:57:46.209 -> 335
12:57:46.249 -> 328
12:57:46.249 -> 337
12:57:46.249 -> 349
12:57:46.249 -> 344
12:57:46.249 -> 339
12:57:46.249 -> 349
12:57:46.249 -> 354
12:57:46.289 -> 349
12:57:46.289 -> 359
12:57:46.289 -> 365
12:57:46.289 -> 356
12:57:46.289 -> 352
12:57:46.289 -> 362
12:57:46.289 -> 367
12:57:46.289 -> 352
12:57:46.329 -> 344
12:57:46.329 -> 349
12:57:46.329 -> 344
12:57:46.329 -> 325
12:57:46.329 -> 318
12:57:46.329 -> 324
12:57:46.329 -> 319
12:57:46.329 -> 302
12:57:46.369 -> 297
12:57:46.369 -> 306
12:57:46.369 -> 303
12:57:46.369 -> 289
12:57:46.369 -> 289
12:57:46.369 -> 300
12:57:46.369 -> 296
12:57:46.369 -> 286
12:57:46.409 -> 289
12:57:46.409 -> 299
12:57:46.409 -> 293
12:57:46.409 -> 283
12:57:46.409 -> 291
12:57:46.409 -> 302
12:57:46.409 -> 295
12:57:46.449 -> 288
12:57:46.449 -> 295
12:57:46.449 -> 305
12:57:46.449 -> 299
12:57:46.449 -> 291
12:57:46.449 -> 297
12:57:46.449 -> 304
12:57:46.449 -> 295
12:57:46.489 -> 289
12:57:46.489 -> 299
12:57:46.489 -> 305
12:57:46.489 -> 294
12:57:46.489 -> 290
12:57:46.489 -> 303
12:57:46.489 -> 308
12:57:46.489 -> 296
12:57:46.529 -> 291
12:57:46.529 -> 302
12:57:46.529 -> 305
12:57:46.529 -> 294
12:57:46.529 -> 292
12:57:46.529 -> 304
12:57:46.529 -> 305
12:57:46.529 -> 294
12:57:46.569 -> 295
12:57:46.569 -> 305
12:57:46.569 -> 304
12:57:46.569 -> 293
12:57:46.569 -> 296
12:57:46.569 -> 308
12:57:46.569 -> 304
12:57:46.609 -> 295
12:57:46.609 -> 309
12:57:46.609 -> 306
12:57:46.609 -> 295
12:57:46.609 -> 301
12:57:46.609 -> 314
12:57:46.609 -> 307
12:57:46.609 -> 297
12:57:46.649 -> 303
12:57:46.649 -> 313
12:57:46.649 -> 306
12:57:46.649 -> 299
12:57:46.649 -> 306
12:57:46.649 -> 315
12:57:46.649 -> 306
12:57:46.649 -> 299
12:57:46.689 -> 309
12:57:46.689 -> 318
12:57:46.689 -> 308
12:57:46.689 -> 303
12:57:46.689 -> 313
12:57:46.689 -> 319
12:57:46.689 -> 307
12:57:46.729 -> 304
12:57:46.729 -> 315
12:57:46.729 -> 321
12:57:46.729 -> 310
12:57:46.729 -> 306
12:57:46.729 -> 316
12:57:46.729 -> 317
12:57:46.729 -> 310
12:57:46.769 -> 310
12:57:46.769 -> 321
12:57:46.769 -> 321
12:57:46.769 -> 309
12:57:46.769 -> 311
12:57:46.769 -> 324
12:57:46.769 -> 323
12:57:46.809 -> 311
12:57:46.809 -> 314
12:57:46.809 -> 326
12:57:46.809 -> 322
12:57:46.809 -> 312
12:57:46.809 -> 316
12:57:46.809 -> 328
12:57:46.809 -> 322
12:57:46.849 -> 312
12:57:46.849 -> 318
12:57:46.849 -> 331
12:57:46.849 -> 326
12:57:46.849 -> 321
12:57:46.849 -> 332
12:57:46.849 -> 343
12:57:46.849 -> 337
12:57:46.889 -> 330
12:57:46.889 -> 336
12:57:46.889 -> 344
12:57:46.889 -> 338
12:57:46.889 -> 333
12:57:46.889 -> 342
12:57:46.889 -> 344
12:57:46.889 -> 327
12:57:46.929 -> 314
12:57:46.929 -> 323
12:57:46.929 -> 329
12:57:46.929 -> 314
12:57:46.929 -> 324
12:57:46.929 -> 327
12:57:46.929 -> 316
12:57:46.969 -> 315
12:57:46.969 -> 327
12:57:46.969 -> 324
12:57:46.969 -> 310
12:57:46.969 -> 317
12:57:46.969 -> 346
12:57:46.969 -> 377
12:57:46.969 -> 405
12:57:47.009 -> 432
12:57:47.009 -> 429
12:57:47.009 -> 393
12:57:47.009 -> 347
12:57:47.009 -> 306
12:57:47.009 -> 283
12:57:47.009 -> 291
12:57:47.009 -> 306
12:57:47.049 -> 320
12:57:47.049 -> 334
12:57:47.049 -> 329
12:57:47.049 -> 321
12:57:47.049 -> 327
12:57:47.049 -> 336
12:57:47.049 -> 328
12:57:47.049 -> 321
12:57:47.089 -> 330
12:57:47.089 -> 339
12:57:47.089 -> 330
12:57:47.089 -> 326
12:57:47.089 -> 336
12:57:47.089 -> 341
12:57:47.089 -> 331
12:57:47.129 -> 327
12:57:47.129 -> 339
12:57:47.129 -> 345
12:57:47.129 -> 336
12:57:47.129 -> 333
12:57:47.129 -> 344
12:57:47.129 -> 347
12:57:47.129 -> 336
12:57:47.169 -> 335
12:57:47.169 -> 348
12:57:47.169 -> 350
12:57:47.169 -> 341
12:57:47.169 -> 344
12:57:47.169 -> 358
12:57:47.169 -> 358
12:57:47.169 -> 348
12:57:47.209 -> 353
12:57:47.209 -> 367
12:57:47.209 -> 365
12:57:47.209 -> 357
12:57:47.209 -> 365
12:57:47.209 -> 380
12:57:47.209 -> 379
12:57:47.249 -> 370
12:57:47.249 -> 375
12:57:47.249 -> 385
12:57:47.249 -> 379
12:57:47.249 -> 371
12:57:47.249 -> 377
12:57:47.249 -> 373
12:57:47.249 -> 360
12:57:47.289 -> 363
12:57:47.289 -> 365
12:57:47.289 -> 348
12:57:47.289 -> 335
12:57:47.289 -> 339
12:57:47.289 -> 341
12:57:47.289 -> 324
12:57:47.329 -> 315
12:57:47.329 -> 321
12:57:47.329 -> 323
12:57:47.329 -> 309
12:57:47.329 -> 305
12:57:47.329 -> 314
12:57:47.329 -> 318
12:57:47.329 -> 308
12:57:47.369 -> 308
12:57:47.369 -> 318
12:57:47.369 -> 318
12:57:47.369 -> 305
12:57:47.369 -> 308
12:57:47.369 -> 321
12:57:47.369 -> 320
12:57:47.369 -> 307
12:57:47.409 -> 310
12:57:47.409 -> 322
12:57:47.409 -> 320
12:57:47.409 -> 309
12:57:47.409 -> 314
12:57:47.409 -> 325
12:57:47.409 -> 320
12:57:47.409 -> 312
12:57:47.449 -> 318
12:57:47.449 -> 328
12:57:47.449 -> 320
12:57:47.449 -> 311
12:57:47.449 -> 318
12:57:47.449 -> 327
12:57:47.449 -> 317
12:57:47.489 -> 310
12:57:47.489 -> 319
12:57:47.489 -> 329
12:57:47.489 -> 319
12:57:47.489 -> 310
12:57:47.489 -> 319
12:57:47.489 -> 327
12:57:47.489 -> 316
12:57:47.529 -> 312
12:57:47.529 -> 323
12:57:47.529 -> 328
12:57:47.529 -> 317
12:57:47.529 -> 312
12:57:47.529 -> 322
12:57:47.529 -> 326
12:57:47.529 -> 316
12:57:47.569 -> 315
12:57:47.569 -> 325
12:57:47.569 -> 326
12:57:47.569 -> 314
12:57:47.569 -> 313
12:57:47.569 -> 325
12:57:47.569 -> 325
12:57:47.569 -> 315
12:57:47.609 -> 328
12:57:47.609 -> 327
12:57:47.609 -> 315
12:57:47.609 -> 316
12:57:47.609 -> 328
12:57:47.609 -> 325
12:57:47.609 -> 315
12:57:47.649 -> 320
12:57:47.649 -> 329
12:57:47.649 -> 324
12:57:47.649 -> 315
12:57:47.649 -> 322
12:57:47.649 -> 332
12:57:47.649 -> 323
12:57:47.649 -> 315
12:57:47.689 -> 323
12:57:47.689 -> 331
12:57:47.689 -> 322
12:57:47.689 -> 316
12:57:47.689 -> 326
12:57:47.689 -> 332
12:57:47.689 -> 322
12:57:47.689 -> 318
12:57:47.729 -> 329
12:57:47.729 -> 332
12:57:47.729 -> 320
12:57:47.729 -> 319
12:57:47.729 -> 331
12:57:47.729 -> 335
12:57:47.729 -> 323
12:57:47.769 -> 321
12:57:47.769 -> 332
12:57:47.769 -> 334
12:57:47.769 -> 321
12:57:47.769 -> 320
12:57:47.769 -> 332
12:57:47.769 -> 331
12:57:47.769 -> 321
12:57:47.809 -> 323
12:57:47.809 -> 333
12:57:47.809 -> 330
12:57:47.809 -> 320
12:57:47.809 -> 324
12:57:47.809 -> 336
12:57:47.809 -> 330
12:57:47.849 -> 319
12:57:47.849 -> 323
12:57:47.849 -> 338
12:57:47.849 -> 336
12:57:47.849 -> 329
12:57:47.849 -> 337
12:57:47.849 -> 351
12:57:47.849 -> 342
12:57:47.889 -> 332
12:57:47.889 -> 339
12:57:47.889 -> 352
12:57:47.889 -> 345
12:57:47.889 -> 335
12:57:47.889 -> 339
12:57:47.889 -> 341
12:57:47.889 -> 323
12:57:47.929 -> 316
12:57:47.929 -> 324
12:57:47.929 -> 330
12:57:47.929 -> 314
12:57:47.929 -> 323
12:57:47.929 -> 326
12:57:47.929 -> 314
12:57:47.969 -> 313
12:57:47.969 -> 324
12:57:47.969 -> 323
12:57:47.969 -> 317
12:57:47.969 -> 337
12:57:47.969 -> 384
12:57:47.969 -> 426
12:57:47.969 -> 434
12:57:48.009 -> 417
12:57:48.009 -> 394
12:57:48.009 -> 356
12:57:48.009 -> 295
12:57:48.009 -> 271
12:57:48.009 -> 304
12:57:48.009 -> 320
12:57:48.009 -> 314
12:57:48.049 -> 320
12:57:48.049 -> 332
12:57:48.049 -> 326
12:57:48.049 -> 314
12:57:48.049 -> 319
12:57:48.049 -> 331
12:57:48.049 -> 325
12:57:48.049 -> 317
12:57:48.089 -> 324
12:57:48.089 -> 333
12:57:48.089 -> 325
12:57:48.089 -> 318
12:57:48.089 -> 327
12:57:48.089 -> 336
12:57:48.089 -> 327
12:57:48.089 -> 321
12:57:48.129 -> 331
12:57:48.129 -> 337
12:57:48.129 -> 327
12:57:48.129 -> 324
12:57:48.129 -> 335
12:57:48.129 -> 341
12:57:48.129 -> 331
12:57:48.169 -> 330
12:57:48.169 -> 342
12:57:48.169 -> 345
12:57:48.169 -> 334
12:57:48.169 -> 335
12:57:48.169 -> 348
12:57:48.169 -> 351
12:57:48.169 -> 340
12:57:48.209 -> 344
12:57:48.209 -> 359
12:57:48.209 -> 360
12:57:48.209 -> 351
12:57:48.209 -> 357
12:57:48.209 -> 371
12:57:48.209 -> 367
12:57:48.209 -> 358
12:57:48.249 -> 363
12:57:48.249 -> 374
12:57:48.249 -> 370
12:57:48.249 -> 361
12:57:48.249 -> 364
12:57:48.249 -> 359
12:57:48.249 -> 345
12:57:48.289 -> 346
12:57:48.289 -> 348
12:57:48.289 -> 332
12:57:48.289 -> 318
12:57:48.289 -> 321
12:57:48.289 -> 324
12:57:48.289 -> 311
12:57:48.289 -> 302
12:57:48.329 -> 309
12:57:48.329 -> 312
12:57:48.329 -> 301
12:57:48.329 -> 297
12:57:48.329 -> 308
12:57:48.329 -> 311
12:57:48.329 -> 298
12:57:48.369 -> 296
12:57:48.369 -> 307
12:57:48.369 -> 309
12:57:48.369 -> 299
12:57:48.369 -> 299
12:57:48.369 -> 311
12:57:48.369 -> 311
12:57:48.369 -> 300
12:57:48.409 -> 300
12:57:48.409 -> 313
12:57:48.409 -> 312
12:57:48.409 -> 301
12:57:48.409 -> 302
12:57:48.409 -> 314
12:57:48.409 -> 312
12:57:48.409 -> 300
12:57:48.449 -> 304
12:57:48.449 -> 319
12:57:48.449 -> 316
12:57:48.449 -> 305
12:57:48.449 -> 309
12:57:48.449 -> 319
12:57:48.449 -> 312
12:57:48.489 -> 304
12:57:48.489 -> 310
12:57:48.489 -> 317
12:57:48.489 -> 309
12:57:48.489 -> 301
12:57:48.489 -> 309
12:57:48.489 -> 317
12:57:48.489 -> 307
12:57:48.529 -> 302
12:57:48.529 -> 312
12:57:48.529 -> 320
12:57:48.529 -> 310
12:57:48.529 -> 304
12:57:48.529 -> 313
12:57:48.529 -> 318
12:57:48.529 -> 305
12:57:48.569 -> 303
12:57:48.569 -> 315
12:57:48.569 -> 318
12:57:48.569 -> 307
12:57:48.569 -> 306
12:57:48.569 -> 316
12:57:48.569 -> 318
12:57:48.569 -> 307
12:57:48.609 -> 319
12:57:48.609 -> 317
12:57:48.609 -> 303
12:57:48.609 -> 307
12:57:48.609 -> 319
12:57:48.609 -> 316
12:57:48.609 -> 306
12:57:48.609 -> 310
12:57:48.649 -> 322
12:57:48.649 -> 318
12:57:48.649 -> 307
12:57:48.649 -> 312
12:57:48.649 -> 322
12:57:48.649 -> 317
12:57:48.649 -> 309
12:57:48.689 -> 315
12:57:48.689 -> 325
12:57:48.689 -> 316
12:57:48.689 -> 309
12:57:48.689 -> 317
12:57:48.689 -> 325
12:57:48.689 -> 316
12:57:48.689 -> 310
12:57:48.729 -> 319
12:57:48.729 -> 327
12:57:48.729 -> 316
12:57:48.729 -> 310
12:57:48.729 -> 320
12:57:48.729 -> 326
12:57:48.729 -> 316
12:57:48.729 -> 311
12:57:48.769 -> 322
12:57:48.769 -> 325
12:57:48.769 -> 313
12:57:48.769 -> 312
12:57:48.769 -> 324
12:57:48.769 -> 326
12:57:48.769 -> 315
12:57:48.809 -> 313
12:57:48.809 -> 324
12:57:48.809 -> 323
12:57:48.809 -> 311
12:57:48.809 -> 312
12:57:48.809 -> 326
12:57:48.809 -> 325
12:57:48.849 -> 314
12:57:48.849 -> 315
12:57:48.849 -> 326
12:57:48.849 -> 322
12:57:48.849 -> 315
12:57:48.849 -> 322
12:57:48.849 -> 337
12:57:48.849 -> 333
12:57:48.889 -> 325
12:57:48.889 -> 334
12:57:48.889 -> 343
12:57:48.889 -> 334
12:57:48.889 -> 328
12:57:48.889 -> 338
12:57:48.889 -> 346
12:57:48.889 -> 335
12:57:48.929 -> 325
12:57:48.929 -> 328
12:57:48.929 -> 328
12:57:48.929 -> 310
12:57:48.929 -> 318
12:57:48.929 -> 324
12:57:48.929 -> 313
12:57:48.929 -> 310
12:57:48.969 -> 320
12:57:48.969 -> 324
12:57:48.969 -> 312
12:57:48.969 -> 306
12:57:48.969 -> 315
12:57:48.969 -> 323
12:57:48.969 -> 330
12:57:49.009 -> 366
12:57:49.009 -> 423
12:57:49.009 -> 445
12:57:49.009 -> 417
12:57:49.009 -> 384
12:57:49.009 -> 359
12:57:49.009 -> 307
12:57:49.009 -> 265
12:57:49.049 -> 286
12:57:49.049 -> 318
12:57:49.049 -> 321
12:57:49.049 -> 312
12:57:49.049 -> 318
12:57:49.049 -> 328
12:57:49.049 -> 321
12:57:49.049 -> 312
12:57:49.089 -> 318
12:57:49.089 -> 326
12:57:49.089 -> 320
12:57:49.089 -> 312
12:57:49.089 -> 321
12:57:49.089 -> 329
12:57:49.089 -> 321
12:57:49.089 -> 317
12:57:49.129 -> 326
12:57:49.129 -> 335
12:57:49.129 -> 324
12:57:49.129 -> 319
12:57:49.129 -> 329
12:57:49.129 -> 334
12:57:49.129 -> 323
12:57:49.169 -> 320
12:57:49.169 -> 332
12:57:49.169 -> 338
12:57:49.169 -> 326
12:57:49.169 -> 325
12:57:49.169 -> 337
12:57:49.169 -> 342
12:57:49.169 -> 334
12:57:49.209 -> 333
12:57:49.209 -> 346
12:57:49.209 -> 349
12:57:49.209 -> 342
12:57:49.209 -> 347
12:57:49.209 -> 360
12:57:49.209 -> 360
12:57:49.209 -> 351
12:57:49.249 -> 355
12:57:49.249 -> 370
12:57:49.249 -> 367
12:57:49.249 -> 356
12:57:49.249 -> 362
12:57:49.249 -> 367
12:57:49.249 -> 355
12:57:49.249 -> 360
12:57:49.289 -> 366
12:57:49.289 -> 353
12:57:49.289 -> 338
12:57:49.289 -> 339
12:57:49.289 -> 340
12:57:49.289 -> 325
12:57:49.289 -> 313
12:57:49.329 -> 318
12:57:49.329 -> 322
12:57:49.329 -> 308
12:57:49.329 -> 299
12:57:49.329 -> 307
12:57:49.329 -> 314
12:57:49.329 -> 302
12:57:49.373 -> 298
12:57:49.373 -> 307
12:57:49.373 -> 311
12:57:49.373 -> 299
12:57:49.373 -> 295
12:57:49.373 -> 308
12:57:49.373 -> 310
12:57:49.373 -> 300
12:57:49.373 -> 300
12:57:49.419 -> 312
12:57:49.419 -> 313
12:57:49.419 -> 301
12:57:49.419 -> 302
12:57:49.419 -> 313
12:57:49.419 -> 312
12:57:49.419 -> 301
12:57:49.419 -> 305
12:57:49.419 -> 317
12:57:49.459 -> 313
12:57:49.459 -> 302
12:57:49.459 -> 307
12:57:49.459 -> 319
12:57:49.459 -> 312
12:57:49.459 -> 301
12:57:49.459 -> 307
12:57:49.459 -> 318
12:57:49.499 -> 312
12:57:49.499 -> 303
12:57:49.499 -> 310
12:57:49.499 -> 318
12:57:49.499 -> 310
12:57:49.499 -> 302
12:57:49.499 -> 311
12:57:49.499 -> 320
12:57:49.539 -> 310
12:57:49.539 -> 304
12:57:49.539 -> 314
12:57:49.539 -> 320
12:57:49.539 -> 309
12:57:49.539 -> 304
12:57:49.539 -> 316
12:57:49.579 -> 320
12:57:49.579 -> 309
12:57:49.579 -> 306
12:57:49.579 -> 317
12:57:49.579 -> 320
12:57:49.579 -> 308
12:57:49.579 -> 319
12:57:49.619 -> 319
12:57:49.619 -> 308
12:57:49.619 -> 309
12:57:49.619 -> 321
12:57:49.619 -> 318
12:57:49.619 -> 307
12:57:49.619 -> 312
12:57:49.619 -> 322
12:57:49.659 -> 319
12:57:49.659 -> 309
12:57:49.659 -> 313
12:57:49.659 -> 324
12:57:49.659 -> 318
12:57:49.659 -> 308
12:57:49.659 -> 313
12:57:49.659 -> 323
12:57:49.699 -> 315
12:57:49.699 -> 308
12:57:49.699 -> 316
12:57:49.699 -> 325
12:57:49.699 -> 318
12:57:49.699 -> 311
12:57:49.699 -> 318
12:57:49.699 -> 324
12:57:49.739 -> 315
12:57:49.739 -> 310
12:57:49.739 -> 321
12:57:49.739 -> 326
12:57:49.739 -> 315
12:57:49.739 -> 308
12:57:49.739 -> 321
12:57:49.779 -> 327
12:57:49.779 -> 316
12:57:49.779 -> 314
12:57:49.779 -> 324
12:57:49.779 -> 325
12:57:49.779 -> 313
12:57:49.779 -> 313
12:57:49.779 -> 325
12:57:49.819 -> 328
12:57:49.819 -> 315
12:57:49.819 -> 315
12:57:49.819 -> 327
12:57:49.819 -> 326
12:57:49.819 -> 314
12:57:49.819 -> 315
12:57:49.819 -> 326
12:57:49.859 -> 324
12:57:49.859 -> 312
12:57:49.859 -> 318
12:57:49.859 -> 330
12:57:49.859 -> 326
12:57:49.859 -> 316
12:57:49.859 -> 322
12:57:49.859 -> 338
12:57:49.899 -> 334
12:57:49.899 -> 329
12:57:49.899 -> 338
12:57:49.899 -> 345
12:57:49.899 -> 336
12:57:49.899 -> 330
12:57:49.899 -> 338
12:57:49.899 -> 344
12:57:49.938 -> 322
12:57:49.938 -> 325
12:57:49.938 -> 326
12:57:49.938 -> 315
12:57:49.938 -> 309
12:57:49.938 -> 320
12:57:49.938 -> 326
12:57:49.979 -> 314
12:57:49.979 -> 311
12:57:49.979 -> 322
12:57:49.979 -> 324
12:57:49.979 -> 310
12:57:49.979 -> 305
12:57:49.979 -> 317
12:57:49.979 -> 329
12:57:50.019 -> 341
12:57:50.019 -> 379
12:57:50.019 -> 434
12:57:50.019 -> 448
12:57:50.019 -> 412
12:57:50.019 -> 376
12:57:50.019 -> 348
12:57:50.019 -> 295
12:57:50.059 -> 269
12:57:50.059 -> 296
12:57:50.059 -> 324
12:57:50.059 -> 323
12:57:50.059 -> 314
12:57:50.059 -> 319
12:57:50.059 -> 326
12:57:50.099 -> 319
12:57:50.099 -> 312
12:57:50.099 -> 321
12:57:50.099 -> 331
12:57:50.099 -> 322
12:57:50.099 -> 313
12:57:50.099 -> 321
12:57:50.139 -> 332
12:57:50.139 -> 326
12:57:50.139 -> 319
12:57:50.139 -> 327
12:57:50.139 -> 334
12:57:50.139 -> 325
12:57:50.139 -> 320
12:57:50.139 -> 331
12:57:50.179 -> 336
12:57:50.179 -> 325
12:57:50.179 -> 322
12:57:50.179 -> 334
12:57:50.179 -> 339
12:57:50.179 -> 331
12:57:50.179 -> 330
12:57:50.179 -> 343
12:57:50.219 -> 346
12:57:50.219 -> 336
12:57:50.219 -> 337
12:57:50.219 -> 352
12:57:50.219 -> 353
12:57:50.219 -> 343
12:57:50.219 -> 347
12:57:50.219 -> 361
12:57:50.259 -> 363
12:57:50.259 -> 355
12:57:50.259 -> 361
12:57:50.259 -> 370
12:57:50.259 -> 361
