timestmp;smpleCnt;grnCnt;led2;led3;grn2Cnt;irCnt;redCnt;hr3;rr5;spo2
11:27:56.812907;61;137010;122532;130666;176490;524159;524159;60.0;0.0;0.0
11:27:56.819644;62;136242;122501;130634;175920;524159;524159;60.0;0.0;0.0
11:27:56.991473;63;135798;122483;130609;175620;524159;524159;60.0;0.0;0.0
11:27:56.998699;64;135305;122418;130544;175298;524159;524159;60.0;0.0;0.0
11:27:57.005429;65;134638;122325;130469;174811;524159;524159;60.0;0.0;0.0
11:27:57.011923;66;133969;122245;130407;174281;524159;524159;60.0;0.0;0.0
11:27:57.019269;67;133499;122211;130378;173944;524159;524159;60.0;0.0;0.0
11:27:57.192184;68;133239;122206;130359;173817;524159;524159;60.0;0.0;0.0
11:27:57.201185;69;133155;122212;130357;173851;524159;524159;60.0;0.0;0.0
11:27:57.209180;70;133158;122221;130347;173973;524159;524159;60.0;0.0;0.0
11:27:57.213177;71;133201;122226;130336;174153;524159;524159;60.0;0.0;0.0
11:27:57.221171;72;133216;122231;130320;174319;524159;524159;60.0;0.0;0.0
11:27:57.392692;73;133228;122228;130312;174500;524159;524159;60.0;0.0;0.0
11:27:57.400689;74;133250;122227;130295;174688;524159;524159;60.0;0.0;0.0
11:27:57.410687;75;133277;122236;130293;174879;524159;524159;60.0;0.0;0.0
11:27:57.418682;76;133392;122243;130290;175129;524159;524159;60.0;0.0;0.0
11:27:57.421676;77;133551;122280;130302;175434;524159;524159;60.0;0.0;0.0
11:27:57.592108;78;133767;122322;130320;175786;524159;524159;60.0;0.0;0.0
11:27:57.603101;79;134025;122346;130324;176163;524159;524159;60.0;0.0;0.0
11:27:57.612096;80;133962;122259;130255;176255;524159;524159;60.0;0.0;0.0
11:27:57.621090;81;132787;121968;130037;175324;524159;524159;60.0;0.0;0.0
11:27:57.628085;82;131156;121701;129868;173922;524159;524159;60.0;0.0;0.0
11:27:57.795012;83;129907;121585;129788;172833;524159;524159;60.0;0.0;0.0
11:27:57.804007;84;129188;121550;129769;172186;524159;524159;60.0;0.0;0.0
11:27:57.810000;85;128917;121557;129762;171941;524159;524159;60.0;0.0;0.0
11:27:57.813998;86;128910;121581;129774;171952;524159;524159;60.0;0.0;0.0
11:27:57.820993;87;128822;121556;129743;171920;524159;524159;60.0;0.0;0.0
11:27:57.991943;88;128531;121495;129686;171682;524159;524159;60.0;0.0;0.0
11:27:57.999645;89;128218;121450;129647;171373;524159;524159;59.0;0.0;0.0
11:27:58.006422;90;128059;121430;129637;171247;524159;524159;59.0;0.0;0.0
11:27:58.013222;91;128102;121453;129633;171312;524159;524159;59.0;0.0;0.0
11:27:58.019698;92;128284;121478;129647;171515;524159;524159;59.0;943.8;0.0
11:27:58.193717;93;128542;121509;129654;171804;524159;524159;59.0;0.0;0.0
11:27:58.201716;94;128821;121526;129660;172128;524159;524159;59.0;0.0;0.0
11:27:58.208712;95;129093;121553;129655;172457;524159;524159;59.0;0.0;0.0
11:27:58.214707;96;129343;121565;129653;172773;524159;524159;59.0;0.0;0.0
11:27:58.221690;97;129588;121588;129655;173090;524159;524159;59.0;0.0;0.0
11:27:58.395300;98;129865;121613;129652;173427;524159;524159;59.0;0.0;0.0
11:27:58.402295;99;130170;121645;129676;173792;524159;524159;59.0;0.0;0.0
11:27:58.408292;100;130522;121692;129692;174199;524159;524159;59.0;0.0;0.0
11:27:58.415866;101;130911;121726;129698;174633;524159;524159;59.0;0.0;0.0
11:27:58.421871;102;130894;121616;129618;174712;524159;524159;59.0;0.0;0.0
11:27:58.594106;103;129816;121323;129401;173780;524159;524159;59.0;0.0;0.0
11:27:58.600878;104;128413;121084;129239;172462;524159;524159;59.0;0.0;0.0
11:27:58.607870;105;127418;120979;129169;171475;524159;524159;59.0;0.0;0.0
11:27:58.614164;106;126885;120954;129137;170911;524159;524159;59.0;0.0;0.0
11:27:58.621894;107;126749;120961;129131;170686;524159;524159;59.0;0.0;0.0
11:27:58.792816;108;126850;120980;129131;170700;524159;524159;59.0;0.0;0.0
11:27:58.800165;109;126900;120963;129107;170700;524159;524159;59.0;0.0;0.0
11:27:58.807792;110;126789;120905;129053;170552;524159;524159;59.0;0.0;0.0
11:27:58.814647;111;126641;120861;129014;170372;524159;524159;59.0;0.0;0.0
11:27:58.821793;112;126645;120860;129006;170333;524159;524159;59.0;0.0;0.0
11:27:58.993664;113;126816;120879;129010;170487;524159;524159;59.0;0.0;0.0
11:27:59.000068;114;127115;120907;129018;170759;524159;524159;59.0;0.0;0.0
11:27:59.007065;115;127458;120952;129030;171104;524159;524159;59.0;0.0;0.0
11:27:59.014060;116;127830;120987;129036;171502;524159;524159;59.0;972.1;0.0
11:27:59.021068;117;128177;121010;129035;171904;524159;524159;59.0;0.0;0.0
11:27:59.193979;118;128520;121034;129048;172304;524159;524159;59.0;0.0;0.0
11:27:59.200974;119;128855;121057;129051;172702;524159;524159;59.0;0.0;0.0
11:27:59.208972;120;129203;121083;129056;173127;524159;524159;59.0;0.0;0.0
11:27:59.215966;121;129591;121123;129068;173581;524159;524159;59.0;0.0;0.0
11:27:59.222960;122;129998;121165;129095;174061;524159;524159;59.0;0.0;0.0
11:27:59.401112;123;130430;121219;129117;174579;524159;524159;59.0;0.0;0.0
11:27:59.408104;124;130866;121273;129135;175092;524159;524159;59.0;0.0;0.0
11:27:59.416104;125;131339;121317;129162;175645;524159;524159;59.0;0.0;0.0
11:27:59.422097;126;131683;121314;129149;176105;524159;524159;59.0;0.0;0.0
11:27:59.429092;127;131206;121086;128962;175751;524159;524159;59.0;0.0;0.0
11:27:59.594563;128;129961;120792;128758;174585;524159;524159;59.0;0.0;0.0
11:27:59.600869;129;128839;120651;128669;173454;524159;524159;59.0;0.0;0.0
11:27:59.608709;130;128196;120600;128640;172737;524159;524159;59.0;0.0;0.0
11:27:59.615273;131;127917;120592;128623;172358;524159;524159;59.0;0.0;0.0
11:27:59.622173;132;127916;120613;128623;172284;524159;524159;59.0;0.0;0.0
11:27:59.796581;133;128014;120625;128620;172338;524159;524159;59.0;0.0;0.0
11:27:59.806575;134;127984;120587;128584;172309;524159;524159;59.0;0.0;0.0
11:27:59.815569;135;127849;120550;128547;172152;524159;524159;59.0;0.0;0.0
11:27:59.821564;136;127814;120534;128526;172084;524159;524159;59.0;0.0;0.0
11:27:59.824564;137;127928;120551;128528;172171;524159;524159;59.0;0.0;0.0
11:27:59.994678;138;128186;120588;128543;172410;524159;524159;59.0;0.0;0.0
11:28:00.001678;139;128524;120630;128566;172752;524159;524159;59.0;922.9;0.0
11:28:00.009674;140;128885;120673;128584;173128;524159;524159;59.0;0.0;0.0
11:28:00.026667;141;129244;120698;128590;173511;524159;524159;59.0;0.0;0.0
11:28:00.031660;142;129579;120730;128604;173901;524159;524159;59.0;0.0;0.0
11:28:00.195191;143;129897;120750;128605;174272;524159;524159;59.0;0.0;0.0
11:28:00.202190;144;130234;120777;128614;174652;524159;524159;59.0;0.0;0.0
11:28:00.210182;145;130607;120814;128636;175072;524159;524159;59.0;0.0;0.0
11:28:00.217522;146;130996;120862;128661;175528;524159;524159;59.0;0.0;0.0
11:28:00.224127;147;131417;120906;128684;176015;524159;524159;59.0;0.0;0.0
11:28:00.401979;148;131846;120969;128715;176523;524159;524159;59.0;0.0;0.0
11:28:00.415970;149;132276;121021;128744;177037;524159;524159;59.0;0.0;0.0
11:28:00.419963;150;132716;121068;128766;177567;524159;524159;59.0;0.0;0.0
11:28:00.422961;151;133142;121115;128796;178085;524159;524159;59.0;0.0;0.0
11:28:00.425959;152;133195;121015;128703;178259;524159;524159;59.0;0.0;0.0
11:28:00.595679;153;132335;120736;128503;177494;524159;524159;59.0;0.0;0.0
11:28:00.602679;154;131246;120547;128378;176428;524159;524159;59.0;0.0;0.0
11:28:00.609682;155;130511;120492;128338;175670;524159;524159;59.0;0.0;0.0
11:28:00.617683;156;130210;120484;128332;175311;524159;524159;59.0;0.0;0.0
11:28:00.627676;157;130177;120512;128343;175219;524159;524159;59.0;0.0;0.0
11:28:00.796678;158;130340;120540;128356;175351;524159;524159;59.0;0.0;0.0
11:28:00.803678;159;130427;120546;128348;175453;524159;524159;59.0;0.0;0.0
11:28:00.810673;160;130356;120503;128320;175414;524159;524159;59.0;0.0;0.0
11:28:00.817685;161;130293;120481;128286;175352;524159;524159;59.0;875.1;0.0
11:28:00.824680;162;130380;120490;128293;175427;524159;524159;59.0;0.0;0.0
11:28:01.000505;163;130595;120530;128318;175662;524159;524159;59.0;0.0;0.0
11:28:01.006502;164;130899;120575;128351;176009;524159;524159;60.0;0.0;0.0
11:28:01.013496;165;131243;120618;128380;176407;524159;524159;60.0;0.0;0.0
11:28:01.019493;166;131592;120659;128397;176817;524159;524159;60.0;0.0;0.0
11:28:01.024963;167;131919;120699;128416;177222;524159;524159;60.0;0.0;0.0
11:28:01.198166;168;132226;120719;128425;177621;524159;524159;60.0;0.0;0.0
11:28:01.208158;169;132547;120745;128439;178030;524159;524159;61.0;0.0;0.0
11:28:01.217153;170;132873;120787;128459;178436;524159;524159;61.0;0.0;0.0
11:28:01.226149;171;133204;120838;128488;178867;524159;524159;61.0;0.0;0.0
11:28:01.230145;172;133575;120885;128514;179347;524159;524159;61.0;0.0;0.0
11:28:01.396674;173;133953;120944;128557;179843;524159;524159;61.0;0.0;0.0
11:28:01.404184;174;134353;121001;128586;180359;524159;524159;61.0;0.0;0.0
11:28:01.410181;175;134759;121056;128622;180890;524159;524159;61.0;0.0;0.0
11:28:01.418307;176;134933;121019;128588;181206;524159;524159;61.0;0.0;0.0
11:28:01.424630;177;134370;120798;128423;180756;524159;524159;61.0;0.0;0.0
11:28:01.603351;178;133448;120620;128302;179879;524159;524159;61.0;0.0;0.0
11:28:01.617343;179;132806;120564;128269;179252;524159;524159;62.0;0.0;0.0
11:28:01.622339;180;132537;120585;128284;178996;524159;524159;62.0;0.0;0.0
11:28:01.626337;181;132564;120631;128309;179036;524159;524159;62.0;0.0;0.0
11:28:01.628335;182;132767;120687;128341;179265;524159;524159;62.0;0.0;0.0
11:28:01.796677;183;132875;120681;128332;179426;524159;524159;62.0;0.0;0.0
11:28:01.803671;184;132802;120651;128307;179409;524159;524159;63.0;0.0;0.0
11:28:01.810682;185;132695;120632;128298;179329;524159;524159;63.0;979.9;0.0
11:28:01.817678;186;132729;120649;128303;179391;524159;524159;63.0;0.0;0.0
11:28:01.824678;187;132893;120684;128320;179569;524159;524159;63.0;0.0;0.0
11:28:01.996680;188;133167;120740;128351;179890;524159;524159;63.0;0.0;0.0
11:28:02.003735;189;133482;120784;128381;180244;524159;524159;64.0;0.0;0.0
11:28:02.010680;190;133802;120842;128410;180611;524159;524159;64.0;0.0;0.0
11:28:02.018670;191;134117;120870;128428;180974;524159;524159;64.0;0.0;0.0
11:28:02.025666;192;134382;120899;128445;181314;524159;524159;64.0;0.0;0.0
11:28:02.197684;193;134645;120929;128461;181648;524159;524159;64.0;0.0;0.0
11:28:02.216673;194;134913;120969;128488;181989;524159;524159;64.0;0.0;0.0
11:28:02.222666;195;135208;121015;128505;182352;524159;524159;64.0;0.0;0.0
11:28:02.226663;196;135548;121072;128549;182776;524159;524159;64.0;0.0;0.0
11:28:02.229661;197;135877;121116;128578;183195;524159;524159;64.0;0.0;0.0
11:28:02.399052;198;135823;121020;128492;183246;524159;524159;64.0;0.0;0.0
11:28:02.406049;199;135076;120802;128339;182550;524159;524159;64.0;0.0;0.0
11:28:02.413043;200;134259;120682;128272;181735;524159;524159;64.0;0.0;0.0
11:28:02.419039;201;133782;120665;128256;181224;524159;524159;64.0;0.0;0.0
11:28:02.425666;202;133667;120704;128279;181077;524159;524159;64.0;0.0;0.0
11:28:02.597303;203;133827;120763;128326;181210;524159;524159;64.0;0.0;0.0
11:28:02.603803;204;134022;120810;128355;181420;524159;524159;64.0;0.0;0.0
11:28:02.610854;205;134051;120785;128322;181473;524159;524159;64.0;0.0;0.0
11:28:02.618053;206;133935;120761;128316;181376;524159;524159;64.0;0.0;0.0
11:28:02.625054;207;133866;120759;128298;181318;524159;524159;64.0;0.0;0.0
11:28:02.797677;208;133958;120795;128317;181410;524159;524159;64.0;0.0;0.0
11:28:02.804254;209;134172;120828;128348;181601;524159;524159;65.0;0.0;0.0
11:28:02.811022;210;134452;120886;128372;181879;524159;524159;65.0;0.0;0.0
11:28:02.818778;211;134748;120933;128404;182196;524159;524159;58.0;1017.5;0.0
11:28:02.825778;212;135050;120969;128437;182529;524159;524159;58.0;0.0;0.0
11:28:02.997262;213;135319;121009;128457;182837;524159;524159;58.0;0.0;0.0
11:28:03.005162;214;135569;121035;128466;183126;524159;524159;58.0;0.0;0.0
11:28:03.011305;215;135837;121069;128482;183440;524159;524159;58.0;0.0;0.0
11:28:03.018853;216;136110;121121;128520;183772;524159;524159;58.0;0.0;0.0
11:28:03.025353;217;136415;121170;128548;184134;524159;524159;58.0;0.0;0.0
11:28:03.197860;218;136760;121218;128579;184520;524159;524159;58.0;0.0;0.0
11:28:03.205002;219;136829;121147;128518;184638;524159;524159;58.0;0.0;0.0
11:28:03.211855;220;136056;120904;128341;183875;524159;524159;58.0;0.0;0.0
11:28:03.218851;221;134989;120724;128216;182731;524159;524159;58.0;0.0;0.0
11:28:03.225777;222;134234;120667;128188;181859;524159;524159;58.0;0.0;0.0
11:28:03.398675;223;133865;120675;128196;181370;524159;524159;58.0;0.0;0.0
11:28:03.406681;224;133767;120695;128209;181174;524159;524159;58.0;0.0;0.0
11:28:03.413682;225;133857;120742;128231;181214;524159;524159;58.0;0.0;0.0
11:28:03.420677;226;133877;120742;128226;181197;524159;524159;58.0;0.0;0.0
11:28:03.428150;227;133744;120699;128195;181035;524159;524159;58.0;0.0;0.0
11:28:03.598625;228;133607;120686;128182;180850;524159;524159;58.0;0.0;0.0
11:28:03.606620;229;133610;120699;128194;180793;524159;524159;58.0;0.0;0.0
11:28:03.614621;230;133762;120732;128212;180894;524159;524159;58.0;0.0;0.0
11:28:03.620613;231;133992;120781;128242;181118;524159;524159;58.0;0.0;0.0
11:28:03.627674;232;134264;120823;128264;181397;524159;524159;58.0;0.0;0.0
11:28:03.799172;233;134536;120860;128289;181699;524159;524159;58.0;0.0;0.0
11:28:03.807165;234;134811;120883;128304;182008;524159;524159;58.0;0.0;0.0
11:28:03.814160;235;135062;120915;128317;182292;524159;524159;58.0;0.0;0.0
11:28:03.821179;236;135307;120937;128330;182584;524159;524159;57.0;0.0;0.0
11:28:03.828671;237;135554;120969;128346;182889;524159;524159;57.0;0.0;0.0
11:28:03.998856;238;135835;121011;128367;183230;524159;524159;57.0;0.0;0.0
11:28:04.005852;239;136146;121055;128397;183602;524159;524159;57.0;0.0;0.0
11:28:04.012855;240;136484;121104;128428;184000;524159;524159;57.0;0.0;0.0
11:28:04.019856;241;136815;121146;128457;184397;524159;524159;57.0;0.0;0.0
11:28:04.025856;242;137149;121204;128493;184823;524159;524159;57.0;0.0;0.0
11:28:04.201114;243;137485;121242;128513;185244;524159;524159;57.0;0.0;0.0
11:28:04.206111;244;137766;121250;128527;185610;524159;524159;57.0;0.0;0.0
11:28:04.213106;245;137358;121051;128368;185258;524159;524159;57.0;0.0;0.0
11:28:04.219876;246;136190;120773;128176;184015;524159;524159;57.0;0.0;0.0
11:28:04.227677;247;135028;120628;128086;182674;524159;524159;57.0;0.0;0.0
11:28:04.407132;248;134258;120574;128064;181705;524159;524159;57.0;0.0;0.0
11:28:04.422123;249;133807;120564;128056;181059;524159;524159;57.0;0.0;0.0
11:28:04.432118;250;133593;120574;128053;180675;524159;524159;57.0;0.0;0.0
11:28:04.438113;251;133542;120581;128066;180468;524159;524159;57.0;0.0;0.0
11:28:04.441110;252;133418;120567;128052;180222;524159;524159;57.0;0.0;0.0
11:28:04.599668;253;133219;120537;128026;179880;524159;524159;57.0;0.0;0.0
11:28:04.606667;254;133041;120506;128007;179589;524159;524159;57.0;0.0;0.0
11:28:04.613664;255;133009;120517;128016;179446;524159;524159;57.0;0.0;0.0
11:28:04.621669;256;133115;120552;128042;179468;524159;524159;57.0;865.1;0.0
11:28:04.628673;257;133339;120592;128061;179630;524159;524159;57.0;0.0;0.0
11:28:04.799139;258;133576;120622;128081;179819;524159;524159;57.0;0.0;0.0
11:28:04.806133;259;133826;120637;128100;180042;524159;524159;57.0;0.0;0.0
11:28:04.813696;260;134039;120664;128112;180246;524159;524159;57.0;0.0;0.0
11:28:04.820670;261;134242;120684;128110;180466;524159;524159;57.0;0.0;0.0
11:28:04.827771;262;134439;120709;128122;180691;524159;524159;57.0;0.0;0.0
11:28:04.999847;263;134662;120745;128149;180952;524159;524159;57.0;0.0;0.0
11:28:05.006664;264;134924;120780;128176;181247;524159;524159;57.0;0.0;0.0
11:28:05.013660;265;135211;120831;128207;181586;524159;524159;57.0;0.0;0.0
11:28:05.020771;266;135511;120880;128238;181931;524159;524159;57.0;0.0;0.0
11:28:05.027848;267;135829;120931;128279;182303;524159;524159;57.0;0.0;0.0
11:28:05.199694;268;136138;120973;128310;182677;524159;524159;57.0;0.0;0.0
11:28:05.206690;269;136463;121028;128340;183067;524159;524159;57.0;0.0;0.0
11:28:05.213685;270;136572;120982;128310;183250;524159;524159;57.0;0.0;0.0
11:28:05.220680;271;135856;120735;128133;182493;524159;524159;57.0;0.0;0.0
11:28:05.227677;272;134687;120519;127997;181143;524159;524159;57.0;0.0;0.0
11:28:05.401676;273;133747;120436;127947;179992;524159;524159;57.0;0.0;0.0
11:28:05.408669;274;133196;120411;127942;179242;524159;524159;57.0;0.0;0.0
11:28:05.415665;275;132917;120411;127948;178782;524159;524159;57.0;0.0;0.0
11:28:05.422669;276;132880;120447;127961;178605;524159;524159;57.0;0.0;0.0
11:28:05.429667;277;132845;120447;127968;178462;524159;524159;57.0;0.0;0.0
11:28:05.600665;278;132705;120414;127939;178213;524159;524159;57.0;853.4;0.0
11:28:05.615661;279;132508;120379;127914;177916;524159;524159;57.0;0.0;0.0
11:28:05.629653;280;132412;120380;127909;177730;524159;524159;57.0;0.0;0.0
11:28:05.636643;281;132475;120410;127934;177717;524159;524159;57.0;0.0;0.0
11:28:05.641638;282;132628;120441;127961;177822;524159;524159;57.0;0.0;0.0
11:28:05.801617;283;132860;120486;127982;178043;524159;524159;57.0;0.0;0.0
11:28:05.811610;284;133103;120519;128000;178289;524159;524159;57.0;0.0;0.0
11:28:05.820604;285;133342;120548;128027;178549;524159;524159;57.0;0.0;0.0
11:28:05.824601;286;133573;120563;128028;178808;524159;524159;57.0;0.0;0.0
11:28:05.829598;287;133778;120589;128044;179065;524159;524159;57.0;0.0;0.0
11:28:06.001455;288;134008;120619;128066;179342;524159;524159;57.0;0.0;0.0
11:28:06.008245;289;134278;120660;128101;179669;524159;524159;57.0;0.0;0.0
11:28:06.015007;290;134560;120709;128121;180021;524159;524159;57.0;0.0;0.0
11:28:06.021847;291;134869;120754;128147;180420;524159;524159;57.0;0.0;0.0
11:28:06.029395;292;135189;120785;128173;180835;524159;524159;57.0;0.0;0.0
11:28:06.200844;293;135520;120830;128197;181271;524159;524159;57.0;0.0;0.0
11:28:06.208243;294;135855;120891;128232;181700;524159;524159;57.0;0.0;0.0
11:28:06.215248;295;136197;120936;128260;182134;524159;524159;57.0;0.0;0.0
11:28:06.221816;296;136540;120991;128297;182569;524159;524159;57.0;0.0;0.0
11:28:06.229765;297;136588;120913;128236;182706;524159;524159;57.0;0.0;0.0
11:28:06.401670;298;135873;120671;128065;181907;524159;524159;57.0;0.0;0.0
11:28:06.408667;299;134869;120488;127950;180691;524159;524159;57.0;0.0;0.0
11:28:06.417179;300;134154;120420;127926;179770;524159;524159;57.0;0.0;0.0
11:28:06.423171;301;133803;120425;127929;179271;524159;524159;57.0;0.0;0.0
11:28:06.430843;302;133690;120433;127939;179039;524159;524159;57.0;0.0;0.0
11:28:06.601153;303;133759;120471;127963;179028;524159;524159;57.0;0.0;0.0
11:28:06.617144;304;133791;120473;127963;179007;524159;524159;57.0;1026.9;0.0
11:28:06.630134;305;133660;120437;127929;178826;524159;524159;57.0;0.0;0.0
11:28:06.633133;306;133523;120408;127915;178620;524159;524159;57.0;0.0;0.0
11:28:06.636131;307;133485;120412;127920;178544;524159;524159;57.0;0.0;0.0
11:28:06.801661;308;133579;120436;127949;178632;524159;524159;57.0;0.0;0.0
11:28:06.816671;309;133752;120483;127979;178826;524159;524159;57.0;0.0;0.0
11:28:06.830661;310;134001;120534;128010;179124;524159;524159;57.0;0.0;0.0
11:28:06.839651;311;134256;120568;128038;179444;524159;524159;57.0;0.0;0.0
11:28:06.842648;312;134507;120601;128063;179761;524159;524159;57.0;0.0;0.0
11:28:07.001839;313;134732;120630;128077;180068;524159;524159;57.0;0.0;0.0
11:28:07.009149;314;134952;120650;128095;180364;524159;524159;57.0;0.0;0.0
11:28:07.015147;315;135198;120689;128114;180688;524159;524159;57.0;0.0;0.0
11:28:07.023838;316;135462;120727;128142;181024;524159;524159;58.0;0.0;0.0
11:28:07.029839;317;135771;120784;128187;181391;524159;524159;58.0;0.0;0.0
11:28:07.204633;318;136093;120838;128226;181794;524159;524159;58.0;0.0;0.0
11:28:07.215626;319;136424;120896;128262;182218;524159;524159;58.0;0.0;0.0
11:28:07.224621;320;136755;120955;128311;182662;524159;524159;58.0;0.0;0.0
11:28:07.231615;321;136998;120960;128309;183007;524159;524159;59.0;0.0;0.0
11:28:07.236614;322;136691;120785;128181;182723;524159;524159;59.0;0.0;0.0
11:28:07.403655;323;135929;120604;128061;181848;524159;524159;59.0;0.0;0.0
11:28:07.413652;324;135323;120535;128029;181118;524159;524159;59.0;0.0;0.0
11:28:07.423644;325;135068;120552;128045;180760;524159;524159;59.0;0.0;0.0
11:28:07.432639;326;135121;120608;128082;180764;524159;524159;60.0;0.0;0.0
11:28:07.439631;327;135349;120668;128127;180987;524159;524159;60.0;0.0;0.0
11:28:07.602659;328;135489;120686;128127;181140;524159;524159;60.0;0.0;0.0
11:28:07.610653;329;135445;120651;128114;181095;524159;524159;60.0;1023.9;0.0
11:28:07.616650;330;135351;120632;128100;180983;524159;524159;60.0;0.0;0.0
11:28:07.623645;331;135353;120643;128111;180960;524159;524159;61.0;0.0;0.0
11:28:07.630814;332;135474;120682;128139;181091;524159;524159;61.0;0.0;0.0
11:28:07.807771;333;135675;120727;128175;181339;524159;524159;61.0;0.0;0.0
11:28:07.817765;334;135930;120786;128214;181657;524159;524159;61.0;0.0;0.0
11:28:07.826759;335;136212;120831;128244;182008;524159;524159;61.0;0.0;0.0
11:28:07.831755;336;136485;120877;128266;182365;524159;524159;63.0;0.0;0.0
11:28:07.834753;337;136730;120907;128292;182696;524159;524159;63.0;0.0;0.0
11:28:08.006117;338;136962;120942;128319;183026;524159;524159;63.0;0.0;0.0
11:28:08.012109;339;137205;120982;128340;183353;524159;524159;63.0;0.0;0.0
11:28:08.018135;340;137468;121033;128376;183699;524159;524159;63.0;0.0;0.0
11:28:08.025041;341;137764;121087;128418;184088;524159;524159;65.0;0.0;0.0
11:28:08.031843;342;138077;121147;128461;184504;524159;524159;65.0;0.0;0.0
11:28:08.203665;343;138192;121107;128432;184712;524159;524159;65.0;0.0;0.0
11:28:08.210660;344;137663;120904;128292;184163;524159;524159;65.0;0.0;0.0
11:28:08.217664;345;136853;120743;128192;183233;524159;524159;65.0;0.0;0.0
11:28:08.224769;346;136278;120707;128170;182550;524159;524159;67.0;0.0;0.0
11:28:08.231767;347;136050;120727;128192;182226;524159;524159;67.0;0.0;0.0
11:28:08.402885;348;136093;120781;128244;182212;524159;524159;67.0;0.0;0.0
11:28:08.409834;349;136284;120838;128273;182359;524159;524159;67.0;0.0;0.0
11:28:08.416832;350;136355;120841;128275;182424;524159;524159;67.0;0.0;0.0
11:28:08.425057;351;136247;120806;128257;182292;524159;524159;69.0;0.0;0.0
11:28:08.431862;352;136124;120804;128250;182136;524159;524159;69.0;0.0;0.0
11:28:08.603236;353;136127;120820;128272;182103;524159;524159;69.0;0.0;0.0
11:28:08.610231;354;136253;120860;128301;182221;524159;524159;69.0;0.0;0.0
11:28:08.617631;355;136461;120911;128343;182455;524159;524159;69.0;0.0;0.0
11:28:08.625649;356;136699;120959;128372;182746;524159;524159;71.0;1069.3;0.0
11:28:08.632654;357;136954;121002;128393;183050;524159;524159;71.0;0.0;0.0
11:28:08.804658;358;137197;121039;128425;183348;524159;524159;71.0;0.0;0.0
11:28:08.811652;359;137420;121073;128454;183643;524159;524159;71.0;0.0;0.0
11:28:08.817648;360;137641;121113;128475;183938;524159;524159;71.0;0.0;0.0
11:28:08.825432;361;137894;121152;128501;184260;524159;524159;72.0;0.0;0.0
11:28:08.831843;362;138116;121156;128503;184538;524159;524159;72.0;0.0;0.0
11:28:09.004761;363;137883;121029;128403;184318;524159;524159;72.0;0.0;0.0
11:28:09.010753;364;137043;120808;128260;183353;524159;524159;72.0;0.0;0.0
11:28:09.017835;365;136201;120688;128184;182326;524159;524159;72.0;0.0;0.0
11:28:09.024833;366;135663;120657;128170;181632;524159;524159;72.0;0.0;0.0
11:28:09.031787;367;135407;120665;128194;181252;524159;524159;72.0;0.0;0.0
11:28:09.205649;368;135418;120701;128217;181158;524159;524159;72.0;0.0;0.0
11:28:09.215641;369;135487;120722;128233;181161;524159;524159;72.0;0.0;0.0
11:28:09.221637;370;135423;120692;128203;181039;524159;524159;72.0;0.0;0.0
11:28:09.227633;371;135255;120653;128184;180812;524159;524159;71.0;0.0;0.0
11:28:09.234629;372;135158;120648;128178;180662;524159;524159;71.0;0.0;0.0
11:28:09.404863;373;135197;120673;128199;180662;524159;524159;71.0;0.0;0.0
11:28:09.411854;374;135335;120709;128224;180788;524159;524159;71.0;0.0;0.0
11:28:09.418752;375;135541;120742;128249;180987;524159;524159;71.0;0.0;0.0
11:28:09.425754;376;135754;120771;128274;181228;524159;524159;71.0;0.0;0.0
11:28:09.432753;377;135969;120805;128292;181474;524159;524159;71.0;0.0;0.0
11:28:09.611968;378;136165;120826;128304;181713;524159;524159;71.0;0.0;0.0
11:28:09.626902;379;136360;120846;128321;181934;524159;524159;71.0;0.0;0.0
11:28:09.632896;380;136559;120871;128340;182187;524159;524159;71.0;969.9;0.0
11:28:09.635894;381;136769;120906;128362;182470;524159;524159;70.0;0.0;0.0
11:28:09.638893;382;137012;120946;128390;182780;524159;524159;70.0;0.0;0.0
11:28:09.805920;383;137281;120984;128417;183129;524159;524159;70.0;0.0;0.0
11:28:09.812918;384;137566;121035;128457;183487;524159;524159;70.0;0.0;0.0
11:28:09.819912;385;137856;121087;128493;183869;524159;524159;70.0;0.0;0.0
11:28:09.826910;386;138151;121120;128519;184252;524159;524159;70.0;0.0;0.0
11:28:09.834902;387;138200;121059;128467;184374;524159;524159;70.0;0.0;0.0
11:28:10.007599;388;137430;120798;128288;183536;524159;524159;70.0;0.0;0.0
11:28:10.014593;389;136287;120587;128158;182199;524159;524159;70.0;0.0;0.0
11:28:10.020586;390;135408;120494;128108;181124;524159;524159;70.0;0.0;0.0
11:28:10.026582;391;134859;120462;128094;180402;524159;524159;69.0;0.0;0.0
11:28:10.033801;392;134552;120451;128090;179935;524159;524159;69.0;0.0;0.0
11:28:10.206649;393;134460;120463;128099;179719;524159;524159;69.0;0.0;0.0
11:28:10.213645;394;134364;120456;128088;179530;524159;524159;69.0;0.0;0.0
11:28:10.220640;395;134142;120405;128054;179228;524159;524159;69.0;0.0;0.0
11:28:10.227650;396;133915;120359;128033;178896;524159;524159;69.0;0.0;0.0
11:28:10.234643;397;133782;120368;128031;178694;524159;524159;69.0;0.0;0.0
11:28:10.405712;398;133798;120379;128042;178664;524159;524159;69.0;0.0;0.0
11:28:10.414707;399;133922;120409;128062;178763;524159;524159;69.0;0.0;0.0
11:28:10.422702;400;134092;120435;128080;178932;524159;524159;69.0;0.0;0.0
11:28:10.432696;401;134272;120460;128100;179109;524159;524159;68.0;0.0;0.0
11:28:10.440690;402;134463;120477;128118;179302;524159;524159;68.0;869.4;0.0
11:28:10.605493;403;134634;120496;128123;179486;524159;524159;68.0;0.0;0.0
11:28:10.613487;404;134803;120511;128136;179673;524159;524159;68.0;0.0;0.0
11:28:10.620482;405;135003;120538;128161;179894;524159;524159;68.0;0.0;0.0
11:28:10.627826;406;135226;120568;128186;180167;524159;524159;68.0;0.0;0.0
11:28:10.634875;407;135481;120614;128213;180464;524159;524159;68.0;0.0;0.0
11:28:10.806905;408;135747;120654;128234;180787;524159;524159;68.0;0.0;0.0
11:28:10.813902;409;136044;120700;128279;181156;524159;524159;68.0;0.0;0.0
11:28:10.820894;410;136331;120738;128305;181510;524159;524159;68.0;0.0;0.0
11:28:10.827592;411;136626;120792;128335;181880;524159;524159;68.0;0.0;0.0
11:28:10.834591;412;136922;120838;128366;182243;524159;524159;68.0;0.0;0.0
11:28:11.007905;413;137051;120797;128333;182448;524159;524159;68.0;0.0;0.0
11:28:11.017895;414;136426;120564;128171;181780;524159;524159;68.0;0.0;0.0
11:28:11.028893;415;135366;120344;128035;180516;524159;524159;68.0;0.0;0.0
11:28:11.037884;416;134513;120252;127981;179458;524159;524159;67.0;0.0;0.0
11:28:11.042882;417;133993;120220;127972;178739;524159;524159;67.0;0.0;0.0
11:28:11.206926;418;133759;120222;127977;178317;524159;524159;67.0;0.0;0.0
11:28:11.222916;419;133713;120236;127990;178153;524159;524159;67.0;0.0;0.0
11:28:11.235909;420;133679;120230;127982;178007;524159;524159;67.0;0.0;0.0
11:28:11.243905;421;133534;120189;127954;177746;524159;524159;67.0;788.0;0.0
11:28:11.248902;422;133358;120151;127927;177450;524159;524159;67.0;0.0;0.0
11:28:11.408645;423;133266;120150;127927;177249;524159;524159;67.0;0.0;0.0
11:28:11.415641;424;133334;120169;127946;177246;524159;524159;67.0;0.0;0.0
11:28:11.422115;425;133504;120202;127971;177363;524159;524159;67.0;0.0;0.0
11:28:11.429874;426;133733;120234;127996;177557;524159;524159;67.0;0.0;0.0
11:28:11.437167;427;133974;120268;128012;177791;524159;524159;67.0;0.0;0.0
11:28:11.444167;428;134202;120291;128034;178023;524159;524159;67.0;0.0;0.0
11:28:11.813643;429;134405;120312;128048;178240;524159;524159;67.0;0.0;0.0
11:28:11.829027;430;134618;120330;128054;178465;524159;524159;67.0;0.0;0.0
11:28:11.844018;431;134839;120356;128080;178719;524159;524159;66.0;0.0;0.0
11:28:11.851010;432;135089;120397;128106;179021;524159;524159;66.0;0.0;0.0
11:28:11.856007;433;135357;120439;128134;179342;524159;524159;66.0;0.0;0.0
11:28:11.860005;434;135662;120486;128168;179722;524159;524159;66.0;0.0;0.0
11:28:11.864002;435;135975;120536;128199;180108;524159;524159;66.0;0.0;0.0
11:28:11.868999;436;136291;120584;128232;180508;524159;524159;66.0;0.0;0.0
11:28:11.873998;437;136617;120634;128268;180909;524159;524159;66.0;0.0;0.0
11:28:11.877993;438;136939;120673;128306;181315;524159;524159;66.0;0.0;0.0
11:28:12.212886;439;137207;120682;128311;181663;524159;524159;66.0;0.0;0.0
11:28:12.219882;440;136900;120504;128179;181372;524159;524159;66.0;0.0;0.0
11:28:12.226639;441;136008;120276;128032;180331;524159;524159;66.0;0.0;0.0
11:28:12.233636;442;135197;120167;127970;179309;524159;524159;66.0;0.0;0.0
11:28:12.240633;443;134742;120142;127967;178679;524159;524159;66.0;0.0;0.0
11:28:12.247643;444;134572;120153;127979;178359;524159;524159;66.0;0.0;0.0
11:28:12.255426;445;134609;120182;127993;178277;524159;524159;66.0;0.0;0.0
11:28:12.261814;446;134683;120201;128015;178280;524159;524159;66.0;979.9;0.0
11:28:12.269665;447;134616;120164;127992;178134;524159;524159;66.0;0.0;0.0
11:28:12.408916;448;134464;120123;127972;177880;524159;524159;66.0;0.0;0.0
11:28:12.415815;449;134377;120124;127977;177722;524159;524159;66.0;0.0;0.0
11:28:12.422952;450;134427;120147;127996;177732;524159;524159;66.0;0.0;0.0
11:28:12.429819;451;134596;120185;128022;177864;524159;524159;66.0;0.0;0.0
11:28:12.436596;452;134813;120227;128054;178081;524159;524159;66.0;0.0;0.0
11:28:12.444167;453;135042;120267;128083;178346;524159;524159;66.0;0.0;0.0
11:28:12.814640;454;135264;120297;128117;178624;524159;524159;66.0;0.0;0.0
11:28:12.820641;455;135486;120324;128129;178879;524159;524159;66.0;0.0;0.0
11:28:12.828634;456;135692;120345;128152;179124;524159;524159;66.0;0.0;0.0
11:28:12.835631;457;135900;120375;128178;179373;524159;524159;66.0;0.0;0.0
11:28:12.842635;458;136143;120415;128211;179667;524159;524159;66.0;0.0;0.0
11:28:12.849813;459;136407;120461;128244;179993;524159;524159;66.0;0.0;0.0
11:28:12.856645;460;136693;120513;128282;180353;524159;524159;66.0;0.0;0.0
11:28:12.864510;461;136988;120574;128328;180726;524159;524159;66.0;0.0;0.0
11:28:12.870816;462;137303;120627;128370;181122;524159;524159;66.0;0.0;0.0
11:28:12.878415;463;137634;120685;128418;181519;524159;524159;66.0;0.0;0.0
11:28:13.213791;464;137881;120691;128421;181840;524159;524159;66.0;0.0;0.0
11:28:13.220783;465;137553;120522;128297;181487;524159;524159;66.0;0.0;0.0
11:28:13.227787;466;136801;120347;128186;180571;524159;524159;66.0;0.0;0.0
11:28:13.235636;467;136201;120278;128153;179784;524159;524159;66.0;0.0;0.0
11:28:13.241810;468;135941;120291;128171;179365;524159;524159;66.0;0.0;0.0
11:28:13.249634;469;135975;120338;128211;179292;524159;524159;66.0;0.0;0.0
11:28:13.256635;470;136169;120391;128259;179423;524159;524159;66.0;0.0;0.0
11:28:13.262809;471;136309;120405;128258;179520;524159;524159;66.0;0.0;0.0
11:28:13.270760;472;136274;120379;128240;179409;524159;524159;66.0;1044.2;0.0
11:28:13.409717;473;136176;120358;128229;179221;524159;524159;66.0;0.0;0.0
11:28:13.418711;474;136177;120369;128249;179160;524159;524159;66.0;0.0;0.0
11:28:13.425236;475;136314;120407;128276;179233;524159;524159;66.0;0.0;0.0
11:28:13.432628;476;136541;120459;128315;179440;524159;524159;66.0;0.0;0.0
11:28:13.440062;477;136821;120499;128347;179732;524159;524159;66.0;0.0;0.0
11:28:13.447162;478;137101;120562;128377;180039;524159;524159;66.0;0.0;0.0
11:28:13.821020;479;137381;120591;128412;180351;524159;524159;66.0;0.0;0.0
11:28:13.831011;480;137643;120619;128428;180653;524159;524159;66.0;0.0;0.0
11:28:13.835009;481;137896;120653;128450;180951;524159;524159;66.0;0.0;0.0
11:28:13.839007;482;138156;120686;128473;181260;524159;524159;66.0;0.0;0.0
11:28:13.844005;483;138425;120728;128505;181583;524159;524159;66.0;0.0;0.0
11:28:13.850805;484;138724;120787;128545;181953;524159;524159;66.0;0.0;0.0
11:28:13.858003;485;139041;120840;128585;182353;524159;524159;66.0;0.0;0.0
11:28:13.864965;486;139376;120899;128632;182784;524159;524159;66.0;0.0;0.0
11:28:13.871630;487;139718;120960;128670;183227;524159;524159;66.0;0.0;0.0
11:28:13.878978;488;139925;120943;128656;183522;524159;524159;66.0;0.0;0.0
11:28:14.220098;489;139469;120729;128508;183035;524159;524159;66.0;0.0;0.0
11:28:14.226095;490;138603;120519;128370;181987;524159;524159;66.0;0.0;0.0
11:28:14.232091;491;137923;120441;128344;181103;524159;524159;66.0;0.0;0.0
11:28:14.238087;492;137568;120443;128343;180586;524159;524159;66.0;0.0;0.0
11:28:14.244083;493;137436;120461;128358;180363;524159;524159;66.0;0.0;0.0
11:28:14.249080;494;137496;120503;128386;180358;524159;524159;66.0;0.0;0.0
11:28:14.255604;495;137549;120516;128394;180384;524159;524159;66.0;0.0;0.0
11:28:14.263503;496;137475;120482;128377;180263;524159;524159;66.0;0.0;0.0
11:28:14.269806;497;137330;120449;128362;180054;524159;524159;66.0;0.0;0.0
11:28:14.410619;498;137301;120462;128372;179956;524159;524159;66.0;0.0;0.0
11:28:14.418628;499;137392;120500;128394;179992;524159;524159;66.0;1047.8;0.0
11:28:14.425628;500;137577;120541;128429;180177;524159;524159;66.0;0.0;0.0
11:28:14.432622;501;137806;120587;128459;180406;524159;524159;66.0;0.0;0.0
11:28:14.439728;502;138068;120624;128489;180696;524159;524159;66.0;0.0;0.0
11:28:14.446736;503;138318;120664;128516;180990;524159;524159;66.0;0.0;0.0
11:28:14.610260;504;138551;120697;128535;181267;524159;524159;66.0;0.0;0.0
11:28:14.622250;505;138778;120723;128561;181541;524159;524159;66.0;0.0;0.0
11:28:14.631248;506;139007;120756;128578;181820;524159;524159;66.0;0.0;0.0
11:28:14.639243;507;139265;120798;128615;182146;524159;524159;66.0;0.0;0.0
11:28:14.642237;508;139545;120843;128647;182506;524159;524159;66.0;0.0;0.0
11:28:14.810805;509;139849;120897;128688;182891;524159;524159;66.0;0.0;0.0
11:28:14.817802;510;140142;120951;128725;183297;524159;524159;66.0;0.0;0.0
11:28:14.824803;511;140466;120993;128764;183724;524159;524159;66.0;0.0;0.0
11:28:14.831800;512;140757;121029;128788;184116;524159;524159;66.0;0.0;0.0
11:28:14.838799;513;140631;120907;128694;184041;524159;524159;66.0;0.0;0.0
11:28:15.010623;514;139829;120661;128521;183130;524159;524159;66.0;0.0;0.0
11:28:15.017618;515;138951;120523;128454;182062;524159;524159;66.0;0.0;0.0
11:28:15.024614;516;138366;120484;128441;181308;524159;524159;66.0;0.0;0.0
11:28:15.031624;517;138067;120497;128441;180895;524159;524159;66.0;0.0;0.0
11:28:15.038621;518;137982;120519;128469;180738;524159;524159;66.0;0.0;0.0
11:28:15.416644;519;138009;120541;128485;180710;524159;524159;66.0;0.0;0.0
11:28:15.424641;520;137952;120523;128474;180617;524159;524159;66.0;0.0;0.0
11:28:15.431616;521;137775;120478;128442;180389;524159;524159;66.0;0.0;0.0
11:28:15.438612;522;137630;120472;128446;180187;524159;524159;66.0;0.0;0.0
11:28:15.445619;523;137600;120490;128460;180111;524159;524159;66.0;991.0;0.0
11:28:15.452842;524;137698;120531;128488;180193;524159;524159;66.0;0.0;0.0
11:28:15.459847;525;137878;120568;128516;180379;524159;524159;66.0;0.0;0.0
11:28:15.467971;526;138092;120611;128546;180616;524159;524159;66.0;0.0;0.0
11:28:15.475294;527;138307;120634;128562;180868;524159;524159;66.0;0.0;0.0
11:28:15.481796;528;138510;120671;128580;181120;524159;524159;66.0;0.0;0.0
11:28:15.611891;529;138696;120688;128596;181354;524159;524159;66.0;0.0;0.0
11:28:15.617882;530;138890;120711;128616;181598;524159;524159;66.0;0.0;0.0
11:28:15.624878;531;139114;120741;128641;181886;524159;524159;66.0;0.0;0.0
11:28:15.631873;532;139360;120784;128666;182215;524159;524159;66.0;0.0;0.0
11:28:15.638870;533;139623;120833;128696;182566;524159;524159;66.0;0.0;0.0
11:28:15.811626;534;139920;120881;128735;182947;524159;524159;66.0;0.0;0.0
11:28:15.821626;535;140222;120931;128772;183332;524159;524159;66.0;0.0;0.0
11:28:15.830619;536;140534;120982;128799;183731;524159;524159;65.0;0.0;0.0
11:28:15.838609;537;140809;121007;128818;184099;524159;524159;65.0;0.0;0.0
11:28:15.842606;538;140639;120867;128722;183995;524159;524159;65.0;0.0;0.0
11:28:16.011610;539;139813;120626;128568;183068;524159;524159;65.0;0.0;0.0
11:28:16.021608;540;138929;120499;128488;182026;524159;524159;65.0;0.0;0.0
11:28:16.031603;541;138369;120461;128479;181325;524159;524159;65.0;0.0;0.0
11:28:16.040597;542;138086;120462;128479;180943;524159;524159;65.0;0.0;0.0
11:28:16.047592;543;138039;120485;128496;180827;524159;524159;65.0;0.0;0.0
11:28:16.418635;544;138067;120506;128505;180816;524159;524159;65.0;0.0;0.0
11:28:16.425616;545;137985;120480;128488;180708;524159;524159;65.0;0.0;0.0
11:28:16.432619;546;137802;120443;128464;180469;524159;524159;65.0;0.0;0.0
11:28:16.439611;547;137651;120436;128461;180265;524159;524159;65.0;960.3;0.0
11:28:16.447640;548;137636;120448;128476;180225;524159;524159;65.0;0.0;97.0
11:28:16.454793;549;137731;120479;128507;180307;524159;524159;65.0;0.0;97.0
11:28:16.461795;550;137918;120528;128537;180503;524159;524159;65.0;0.0;97.0
11:28:16.469790;551;138112;120562;128567;180710;524159;524159;65.0;0.0;97.0
11:28:16.476611;552;138307;120597;128589;180945;524159;524159;65.0;0.0;97.0
11:28:16.484063;553;138486;120620;128604;181172;524159;524159;65.0;0.0;97.0
11:28:16.611796;554;138640;120636;128617;181368;524159;524159;65.0;0.0;97.0
11:28:16.618997;555;138790;120669;128641;181573;524159;524159;65.0;0.0;97.0
11:28:16.626867;556;138976;120703;128667;181829;524159;524159;65.0;0.0;97.0
11:28:16.633715;557;139199;120743;128695;182097;524159;524159;65.0;0.0;97.0
11:28:16.640869;558;139443;120794;128733;182405;524159;524159;65.0;0.0;97.0
11:28:16.819775;559;139705;120846;128778;182737;524159;524159;65.0;0.0;97.0
11:28:16.830767;560;139994;120897;128819;183102;524159;524159;65.0;0.0;97.0
11:28:16.834765;561;140292;120952;128860;183473;524159;524159;65.0;0.0;97.0
11:28:16.839762;562;140465;120953;128848;183732;524159;524159;65.0;0.0;97.0
11:28:16.842760;563;140038;120773;128729;183283;524159;524159;65.0;0.0;97.0
11:28:17.013609;564;139169;120585;128615;182267;524159;524159;65.0;0.0;97.0
11:28:17.020604;565;138465;120516;128576;181397;524159;524159;65.0;0.0;97.0
11:28:17.034601;566;138085;120521;128588;180897;524159;524159;65.0;0.0;97.0
11:28:17.042592;567;137983;120547;128616;180716;524159;524159;65.0;0.0;97.0
11:28:17.046589;568;138055;120596;128639;180737;524159;524159;65.0;0.0;97.0
11:28:17.418481;569;138060;120592;128638;180729;524159;524159;65.0;0.0;97.0
11:28:17.426479;570;137905;120553;128604;180524;524159;524159;65.0;0.0;97.0
11:28:17.433473;571;137716;120525;128589;180272;524159;524159;65.0;0.0;97.0
11:28:17.441608;572;137624;120520;128594;180133;524159;524159;65.0;981.7;97.0
11:28:17.448608;573;137683;120546;128618;180170;524159;524159;65.0;0.0;96.9
11:28:17.455603;574;137834;120586;128644;180317;524159;524159;65.0;0.0;96.9
11:28:17.463562;575;138041;120613;128657;180537;524159;524159;65.0;0.0;96.9
11:28:17.470798;576;138248;120646;128667;180782;524159;524159;64.0;0.0;96.9
11:28:17.477287;577;138451;120669;128683;181007;524159;524159;64.0;0.0;96.9
11:28:17.485630;578;138623;120688;128691;181216;524159;524159;64.0;0.0;96.9
11:28:17.614602;579;138777;120712;128720;181401;524159;524159;64.0;0.0;96.9
11:28:17.620597;580;138965;120746;128743;181619;524159;524159;64.0;0.0;96.9
11:28:17.628607;581;139176;120786;128770;181873;524159;524159;64.0;0.0;96.9
11:28:17.636601;582;139409;120827;128801;182167;524159;524159;64.0;0.0;96.9
11:28:17.643135;583;139677;120873;128843;182503;524159;524159;64.0;0.0;96.9
11:28:17.815609;584;139950;120921;128866;182850;524159;524159;64.0;0.0;96.9
11:28:17.829595;585;140222;120956;128892;183196;524159;524159;64.0;0.0;96.9
11:28:17.843592;586;140127;120856;128816;183138;524159;524159;64.0;0.0;96.9
11:28:17.849588;587;139313;120609;128649;182208;524159;524159;64.0;0.0;96.9
11:28:17.853582;588;138339;120440;128561;181041;524159;524159;64.0;0.0;96.9
11:28:18.015609;589;137647;120392;128532;180172;524159;524159;64.0;0.0;96.9
11:28:18.025604;590;137251;120366;128526;179623;524159;524159;64.0;0.0;96.9
11:28:18.034598;591;137098;120387;128530;179348;524159;524159;64.0;0.0;96.9
11:28:18.044589;592;137070;120399;128547;179208;524159;524159;64.0;0.0;96.9
11:28:18.051587;593;136952;120374;128528;179017;524159;524159;64.0;0.0;96.9
11:28:18.216867;594;136708;120329;128497;178664;524159;524159;64.0;0.0;96.9
11:28:18.225860;595;136500;120304;128490;178337;524159;524159;64.0;0.0;96.9
11:28:18.235855;596;136437;120314;128492;178189;524159;524159;64.0;0.0;96.9
11:28:18.240850;597;136507;120344;128512;178195;524159;524159;64.0;997.5;96.9
11:28:18.244848;598;136657;120374;128534;178308;524159;524159;64.0;0.0;96.9
11:28:18.418039;599;136846;120403;128561;178483;524159;524159;64.0;0.0;96.9
11:28:18.425033;600;137039;120426;128573;178659;524159;524159;64.0;0.0;96.9
11:28:18.432028;601;137194;120441;128576;178831;524159;524159;63.0;0.0;96.9
11:28:18.442021;602;137333;120454;128591;178992;524159;524159;63.0;0.0;96.9
11:28:18.447020;603;137487;120476;128609;179174;524159;524159;63.0;0.0;96.9
11:28:18.614500;604;137679;120505;128627;179406;524159;524159;63.0;0.0;96.9
11:28:18.622497;605;137901;120542;128650;179668;524159;524159;63.0;0.0;96.9
11:28:18.629490;606;138139;120578;128673;179951;524159;524159;63.0;0.0;96.9
11:28:18.637486;607;138413;120621;128709;180274;524159;524159;63.0;0.0;96.9
11:28:18.644481;608;138675;120667;128736;180586;524159;524159;63.0;0.0;96.9
11:28:18.814951;609;138946;120707;128767;180935;524159;524159;63.0;0.0;96.9
11:28:18.822604;610;139228;120746;128792;181294;524159;524159;63.0;0.0;96.9
11:28:18.829605;611;139400;120740;128783;181533;524159;524159;63.0;0.0;96.9
11:28:18.836600;612;138933;120528;128634;181013;524159;524159;63.0;0.0;96.9
11:28:18.843704;613;137958;120308;128486;179844;524159;524159;63.0;0.0;96.9
11:28:19.015951;614;137130;120198;128435;178754;524159;524159;63.0;0.0;96.9
11:28:19.022943;615;136633;120170;128410;178031;524159;524159;63.0;0.0;96.9
11:28:19.029939;616;136382;120159;128417;177581;524159;524159;63.0;0.0;96.9
11:28:19.037598;617;136332;120169;128426;177381;524159;524159;63.0;0.0;96.9
11:28:19.044598;618;136298;120170;128416;177235;524159;524159;63.0;0.0;96.9
11:28:19.215386;619;136139;120128;128388;176956;524159;524159;63.0;0.0;96.9
11:28:19.221778;620;135924;120079;128361;176603;524159;524159;63.0;0.0;96.9
11:28:19.229976;621;135806;120075;128367;176376;524159;524159;63.0;981.7;96.9
11:28:19.237702;622;135831;120098;128380;176322;524159;524159;63.0;0.0;96.9
11:28:19.244859;623;135951;120126;128403;176398;524159;524159;63.0;0.0;96.9
11:28:19.417076;624;136123;120153;128421;176568;524159;524159;63.0;0.0;96.9
11:28:19.423075;625;136310;120182;128444;176775;524159;524159;63.0;0.0;96.9
11:28:19.432166;626;136499;120202;128450;176994;524159;524159;63.0;0.0;96.9
11:28:19.439607;627;136667;120226;128467;177192;524159;524159;63.0;0.0;96.9
11:28:19.446135;628;136845;120240;128483;177400;524159;524159;63.0;0.0;96.9
11:28:19.617731;629;137028;120270;128502;177639;524159;524159;63.0;0.0;96.9
11:28:19.627726;630;137249;120305;128528;177912;524159;524159;63.0;0.0;96.9
11:28:19.637230;631;137493;120352;128555;178230;524159;524159;62.0;0.0;96.9
11:28:19.646224;632;137762;120391;128589;178578;524159;524159;62.0;0.0;96.9
11:28:19.651221;633;138038;120443;128626;178940;524159;524159;62.0;0.0;96.9
11:28:19.816491;634;138320;120483;128657;179310;524159;524159;62.0;0.0;96.9
11:28:19.823487;635;138611;120536;128689;179705;524159;524159;62.0;0.0;96.9
11:28:19.831083;636;138915;120583;128719;180108;524159;524159;62.0;0.0;96.9
11:28:19.839071;637;138999;120527;128687;180276;524159;524159;62.0;0.0;96.9
11:28:19.847069;638;138400;120318;128538;179600;524159;524159;62.0;0.0;96.9
11:28:20.015884;639;137557;120160;128450;178563;524159;524159;62.0;0.0;96.9
11:28:20.023879;640;136947;120114;128428;177770;524159;524159;62.0;0.0;96.9
11:28:20.031382;641;136648;120111;128438;177341;524159;524159;62.0;0.0;96.9
11:28:20.039382;642;136599;120143;128456;177199;524159;524159;62.0;0.0;96.9
11:28:20.046173;643;136680;120178;128487;177255;524159;524159;62.0;0.0;96.9
11:28:20.217015;644;136671;120162;128473;177216;524159;524159;62.0;0.0;96.9
11:28:20.224014;645;136507;120118;128443;176978;524159;524159;62.0;945.9;96.9
11:28:20.231007;646;136343;120094;128432;176736;524159;524159;62.0;0.0;96.9
11:28:20.238596;647;136335;120119;128449;176677;524159;524159;62.0;0.0;96.9
11:28:20.245593;648;136436;120146;128472;176770;524159;524159;62.0;0.0;96.8
11:28:20.416691;649;136618;120194;128502;176967;524159;524159;62.0;0.0;96.8
11:28:20.424595;650;136829;120235;128536;177218;524159;524159;62.0;0.0;96.8
11:28:20.432323;651;137042;120277;128565;177497;524159;524159;62.0;0.0;96.8
11:28:20.439588;652;137223;120300;128574;177750;524159;524159;62.0;0.0;96.8
11:28:20.446585;653;137399;120320;128590;178001;524159;524159;62.0;0.0;96.8
11:28:20.617588;654;137578;120349;128610;178252;524159;524159;62.0;0.0;96.8
11:28:20.624592;655;137793;120381;128641;178538;524159;524159;62.0;0.0;96.8
11:28:20.631588;656;138035;120427;128669;178860;524159;524159;62.0;0.0;96.8
11:28:20.639582;657;138304;120482;128702;179217;524159;524159;62.0;0.0;96.8
11:28:20.646468;658;138582;120532;128738;179604;524159;524159;62.0;0.0;96.8
11:28:20.816371;659;138895;120596;128783;180037;524159;524159;62.0;0.0;96.8
11:28:20.824220;660;139084;120575;128772;180324;524159;524159;62.0;0.0;96.8
11:28:20.831120;661;138683;120397;128643;179875;524159;524159;62.0;0.0;96.8
11:28:20.838605;662;137905;120224;128541;178914;524159;524159;62.0;0.0;96.8
11:28:20.845119;663;137299;120166;128510;178139;524159;524159;62.0;0.0;96.8
11:28:21.016852;664;137016;120180;128519;177725;524159;524159;62.0;0.0;96.8
11:28:21.024586;665;137013;120218;128555;177629;524159;524159;62.0;0.0;96.8
11:28:21.031589;666;137186;120264;128582;177746;524159;524159;62.0;0.0;96.8
11:28:21.038590;667;137274;120274;128586;177813;524159;524159;62.0;0.0;96.8
11:28:21.046585;668;137196;120235;128567;177690;524159;524159;62.0;0.0;96.8
11:28:21.217598;669;137105;120227;128558;177507;524159;524159;62.0;0.0;96.8
11:28:21.224525;670;137111;120246;128579;177471;524159;524159;62.0;0.0;96.8
11:28:21.232616;671;137257;120295;128604;177597;524159;524159;62.0;1019.3;96.8
11:28:21.239585;672;137481;120339;128643;177823;524159;524159;62.0;0.0;96.8
11:28:21.247248;673;137730;120392;128677;178110;524159;524159;62.0;0.0;96.7
11:28:21.417591;674;137992;120435;128704;178413;524159;524159;62.0;0.0;96.7
11:28:21.425584;675;138232;120465;128740;178709;524159;524159;62.0;0.0;96.7
11:28:21.433111;676;138453;120494;128748;178988;524159;524159;61.0;0.0;96.7
11:28:21.440089;677;138675;120523;128768;179260;524159;524159;61.0;0.0;96.7
11:28:21.447593;678;138912;120568;128801;179552;524159;524159;61.0;0.0;96.7
11:28:21.619755;679;139171;120613;128833;179874;524159;524159;61.0;0.0;96.7
11:28:21.627749;680;139447;120664;128874;180231;524159;524159;61.0;0.0;96.7
11:28:21.636743;681;139742;120714;128909;180614;524159;524159;61.0;0.0;96.7
11:28:21.642741;682;140053;120769;128939;181003;524159;524159;61.0;0.0;96.7
11:28:21.652733;683;140173;120721;128905;181197;524159;524159;61.0;0.0;96.7
11:28:21.818857;684;139587;120506;128751;180529;524159;524159;61.0;0.0;96.7
11:28:21.827848;685;138649;120320;128640;179375;524159;524159;61.0;0.0;96.7
11:28:21.834849;686;137943;120250;128609;178433;524159;524159;61.0;0.0;96.7
11:28:21.840839;687;137553;120249;128615;177882;524159;524159;61.0;0.0;96.7
11:28:21.846836;688;137422;120268;128630;177631;524159;524159;61.0;0.0;96.7
11:28:22.018618;689;137473;120302;128648;177601;524159;524159;61.0;0.0;96.7
11:28:22.025745;690;137506;120303;128657;177578;524159;524159;61.0;0.0;96.7
11:28:22.032737;691;137406;120277;128629;177417;524159;524159;61.0;0.0;96.7
11:28:22.039733;692;137286;120253;128625;177218;524159;524159;61.0;0.0;96.7
11:28:22.047584;693;137270;120266;128628;177161;524159;524159;61.0;0.0;96.7
11:28:22.218253;694;137392;120305;128653;177261;524159;524159;61.0;0.0;96.7
11:28:22.226248;695;137595;120343;128677;177475;524159;524159;61.0;0.0;96.7
11:28:22.236245;696;137833;120397;128713;177745;524159;524159;61.0;1025.0;96.7
11:28:22.251235;697;138073;120431;128730;178044;524159;524159;61.0;0.0;96.7
11:28:22.258232;698;138307;120464;128749;178327;524159;524159;61.0;0.0;96.5
11:28:22.419282;699;138526;120484;128767;178621;524159;524159;61.0;0.0;96.5
11:28:22.426584;700;138754;120513;128791;178911;524159;524159;61.0;0.0;96.5
11:28:22.433581;701;138977;120554;128813;179225;524159;524159;61.0;0.0;96.5
11:28:22.440574;702;139235;120595;128844;179594;524159;524159;61.0;0.0;96.5
11:28:22.447565;703;139513;120643;128873;179986;524159;524159;61.0;0.0;96.5
11:28:22.619185;704;139824;120688;128896;180398;524159;524159;61.0;0.0;96.5
11:28:22.626579;705;140130;120743;128940;180810;524159;524159;61.0;0.0;96.5
11:28:22.633583;706;140451;120801;128981;181247;524159;524159;61.0;0.0;96.5
11:28:22.640580;707;140758;120843;129002;181677;524159;524159;61.0;0.0;96.5
11:28:22.648572;708;140990;120843;128998;182017;524159;524159;61.0;0.0;96.5
11:28:22.818542;709;140550;120628;128847;181576;524159;524159;61.0;0.0;96.5
11:28:22.826537;710;139554;120399;128691;180402;524159;524159;61.0;0.0;96.5
11:28:22.834538;711;138658;120281;128633;179278;524159;524159;61.0;0.0;96.5
11:28:22.842527;712;138117;120258;128621;178550;524159;524159;61.0;0.0;96.5
11:28:22.853524;713;137810;120249;128618;178104;524159;524159;61.0;0.0;96.5
11:28:23.021846;714;137725;120270;128636;177905;524159;524159;61.0;0.0;96.5
11:28:23.028841;715;137725;120284;128641;177830;524159;524159;61.0;0.0;96.5
11:28:23.035837;716;137651;120260;128623;177714;524159;524159;61.0;0.0;96.5
11:28:23.041200;717;137512;120225;128601;177515;524159;524159;61.0;0.0;96.5
11:28:23.048682;718;137442;120226;128602;177400;524159;524159;61.0;0.0;96.5
11:28:23.219754;719;137499;120263;128623;177442;524159;524159;61.0;926.9;96.5
11:28:23.227058;720;137683;120304;128652;177622;524159;524159;61.0;0.0;96.5
11:28:23.234207;721;137926;120346;128681;177880;524159;524159;61.0;0.0;96.5
11:28:23.240783;722;138172;120384;128707;178191;524159;524159;61.0;0.0;96.5
11:28:23.248529;723;138393;120422;128721;178496;524159;524159;61.0;0.0;96.4
11:28:23.420531;724;138605;120445;128749;178782;524159;524159;61.0;0.0;96.4
11:28:23.429525;725;138828;120478;128765;179078;524159;524159;61.0;0.0;96.4
11:28:23.435520;726;139060;120511;128785;179396;524159;524159;61.0;0.0;96.4
11:28:23.442513;727;139320;120544;128804;179740;524159;524159;61.0;0.0;96.4
11:28:23.450576;728;139611;120597;128841;180130;524159;524159;61.0;0.0;96.4
11:28:23.622593;729;139926;120650;128879;180543;524159;524159;61.0;0.0;96.4
11:28:23.632585;730;140243;120703;128913;180968;524159;524159;61.0;0.0;96.4
11:28:23.640578;731;140575;120747;128936;181415;524159;524159;61.0;0.0;96.4
11:28:23.644576;732;140908;120802;128982;181863;524159;524159;61.0;0.0;96.4
11:28:23.651057;733;141227;120854;129017;182320;524159;524159;61.0;0.0;96.4
11:28:23.819565;734;141563;120907;129048;182802;524159;524159;61.0;0.0;96.4
11:28:23.826569;735;141871;120937;129066;183241;524159;524159;61.0;0.0;96.4
11:28:23.834568;736;141697;120774;128947;183115;524159;524159;61.0;0.0;96.4
11:28:23.841577;737;140846;120524;128780;182152;524159;524159;61.0;0.0;96.4
11:28:23.848572;738;139940;120388;128703;181060;524159;524159;61.0;0.0;96.4
11:28:24.020591;739;139357;120356;128688;180315;524159;524159;61.0;0.0;96.4
11:28:24.027586;740;139055;120357;128691;179902;524159;524159;61.0;0.0;96.4
11:28:24.038473;741;138966;120383;128705;179744;524159;524159;61.0;0.0;96.4
11:28:24.052461;742;139006;120419;128737;179760;524159;524159;61.0;916.2;96.4
11:28:24.059453;743;138968;120403;128720;179739;524159;524159;61.0;0.0;96.4
11:28:24.222133;744;138839;120375;128700;179601;524159;524159;61.0;0.0;96.4
11:28:24.232125;745;138748;120369;128700;179486;524159;524159;61.0;0.0;96.4
11:28:24.240118;746;138772;120391;128718;179508;524159;524159;61.0;0.0;96.4
11:28:24.243116;747;138905;120434;128744;179663;524159;524159;61.0;0.0;96.4
11:28:24.249761;748;139124;120485;128775;179915;524159;524159;61.0;0.0;96.2
11:28:24.420861;749;139385;120522;128809;180234;524159;524159;61.0;0.0;96.2
11:28:24.428857;750;139632;120569;128838;180568;524159;524159;61.0;0.0;96.2
11:28:24.436562;751;139873;120606;128860;180898;524159;524159;61.0;0.0;96.2
11:28:24.444573;752;140094;120628;128879;181211;524159;524159;61.0;0.0;96.2
11:28:24.451574;753;140327;120662;128906;181524;524159;524159;61.0;0.0;96.2
11:28:24.620569;754;140580;120703;128931;181881;524159;524159;61.0;0.0;96.2
11:28:24.627570;755;140854;120748;128961;182261;524159;524159;61.0;0.0;96.2
11:28:24.635564;756;141160;120796;128985;182679;524159;524159;61.0;0.0;96.2
11:28:24.643034;757;141465;120846;129028;183106;524159;524159;61.0;0.0;96.2
11:28:24.650030;758;141775;120898;129064;183551;524159;524159;61.0;0.0;96.2
11:28:24.820802;759;142090;120954;129103;184011;524159;524159;61.0;0.0;96.2
11:28:24.827949;760;142416;121008;129143;184496;524159;524159;61.0;0.0;96.2
11:28:24.834747;761;142742;121061;129178;184963;524159;524159;61.0;0.0;96.2
11:28:24.842956;762;142900;121022;129149;185244;524159;524159;61.0;0.0;96.2
11:28:24.849746;763;142378;120794;128990;184723;524159;524159;61.0;0.0;96.2
11:28:25.022365;764;141523;120605;128878;183754;524159;524159;61.0;0.0;96.2
11:28:25.029361;765;140859;120549;128847;182991;524159;524159;61.0;0.0;96.2
11:28:25.038600;766;140531;120557;128864;182616;524159;524159;61.0;0.0;96.2
11:28:25.050599;767;140437;120592;128879;182499;524159;524159;61.0;1013.7;96.2
11:28:25.054599;768;140529;120640;128916;182590;524159;524159;61.0;0.0;96.2
11:28:25.221568;769;140583;120647;128928;182681;524159;524159;61.0;0.0;96.2
11:28:25.228247;770;140508;120624;128909;182633;524159;524159;61.0;0.0;96.2
11:28:25.236248;771;140390;120602;128892;182490;524159;524159;61.0;0.0;96.2
11:28:25.243563;772;140363;120611;128905;182459;524159;524159;61.0;0.0;96.2
11:28:25.250572;773;140446;120659;128935;182569;524159;524159;61.0;0.0;96.2
11:28:25.422439;774;140631;120701;128971;182793;524159;524159;61.0;0.0;96.2
11:28:25.431432;775;140880;120766;129012;183095;524159;524159;61.0;0.0;96.2
11:28:25.441427;776;141139;120808;129047;183412;524159;524159;61.0;0.0;96.2
11:28:25.451420;777;141389;120847;129078;183723;524159;524159;61.0;0.0;96.2
11:28:25.459415;778;141621;120887;129096;184028;524159;524159;61.0;0.0;96.2
11:28:25.626649;779;141830;120915;129129;184311;524159;524159;61.0;0.0;96.2
11:28:25.633647;780;142045;120950;129152;184598;524159;524159;61.0;0.0;96.2
11:28:25.641643;781;142295;121002;129195;184920;524159;524159;61.0;0.0;96.2
11:28:25.648637;782;142568;121062;129236;185296;524159;524159;61.0;0.0;96.2
11:28:25.652634;783;142858;121119;129279;185677;524159;524159;61.0;0.0;96.2
11:28:25.830933;784;143185;121181;129321;186102;524159;524159;61.0;0.0;96.2
11:28:25.844879;785;143313;121157;129297;186333;524159;524159;61.0;0.0;96.2
11:28:25.855873;786;142852;120962;129169;185853;524159;524159;61.0;0.0;96.2
11:28:25.860869;787;142105;120815;129076;184971;524159;524159;61.0;0.0;96.2
11:28:25.864865;788;141568;120774;129061;184313;524159;524159;61.0;0.0;96.2
11:28:26.022828;789;141349;120798;129080;183996;524159;524159;61.0;0.0;96.2
11:28:26.028825;790;141407;120864;129130;183996;524159;524159;61.0;0.0;96.2
11:28:26.036820;791;141576;120925;129176;184152;524159;524159;61.0;0.0;96.2
11:28:26.043814;792;141644;120932;129180;184241;524159;524159;61.0;0.0;96.2
11:28:26.051813;793;141558;120899;129153;184154;524159;524159;61.0;0.0;96.2
11:28:26.222561;794;141454;120890;129152;184031;524159;524159;61.0;0.0;96.2
11:28:26.229547;795;141446;120911;129167;184027;524159;524159;61.0;1089.3;96.2
11:28:26.244547;796;141562;120956;129200;184139;524159;524159;61.0;0.0;96.2
11:28:26.252537;797;141773;121007;129234;184362;524159;524159;61.0;0.0;96.2
11:28:26.255537;798;142020;121056;129267;184649;524159;524159;61.0;0.0;96.2
11:28:26.422172;799;142258;121108;129299;184942;524159;524159;61.0;0.0;96.2
11:28:26.429747;800;142500;121148;129327;185236;524159;524159;61.0;0.0;96.2
11:28:26.437741;801;142725;121178;129353;185529;524159;524159;61.0;0.0;96.2
11:28:26.445039;802;142921;121213;129378;185795;524159;524159;61.0;0.0;96.2
11:28:26.451739;803;143124;121244;129403;186063;524159;524159;61.0;0.0;96.2
11:28:26.623294;804;143372;121293;129430;186371;524159;524159;61.0;0.0;96.2
11:28:26.630560;805;143633;121342;129467;186703;524159;524159;61.0;0.0;96.2
11:28:26.639559;806;143921;121393;129503;187085;524159;524159;61.0;0.0;96.2
11:28:26.645550;807;144218;121451;129534;187482;524159;524159;61.0;0.0;96.2
11:28:26.654546;808;144440;121459;129540;187785;524159;524159;61.0;0.0;96.2
11:28:26.823559;809;144064;121255;129404;187389;524159;524159;61.0;0.0;96.2
11:28:26.830561;810;143120;121023;129247;186278;524159;524159;61.0;0.0;96.2
11:28:26.840559;811;142278;120924;129195;185219;524159;524159;61.0;0.0;96.2
11:28:26.851590;812;141765;120906;129193;184545;524159;524159;61.0;0.0;96.2
11:28:26.856547;813;141549;120923;129210;184188;524159;524159;61.0;0.0;96.2
11:28:27.024273;814;141544;120963;129233;184067;524159;524159;61.0;0.0;96.2
11:28:27.031270;815;141560;120983;129242;184018;524159;524159;61.0;0.0;96.2
11:28:27.039265;816;141442;120946;129232;183832;524159;524159;61.0;0.0;96.2
11:28:27.046552;817;141247;120910;129199;183528;524159;524159;61.0;0.0;96.2
11:28:27.054564;818;141126;120910;129201;183311;524159;524159;61.0;0.0;96.2
11:28:27.223736;819;141124;120931;129224;183233;524159;524159;61.0;0.0;96.2
11:28:27.231218;820;141228;120968;129251;183307;524159;524159;61.0;0.0;96.2
11:28:27.238934;821;141395;121006;129270;183460;524159;524159;61.0;1056.8;96.2
11:28:27.246085;822;141592;121039;129297;183670;524159;524159;61.0;0.0;96.2
11:28:27.253582;823;141772;121073;129317;183863;524159;524159;61.0;0.0;96.2
11:28:27.421098;824;141931;121100;129339;184064;524159;524159;61.0;0.0;96.2
11:28:27.431147;825;142088;121116;129352;184261;524159;524159;61.0;0.0;96.2
11:28:27.436155;826;142246;121147;129370;184461;524159;524159;61.0;0.0;96.2
11:28:27.444745;827;142435;121184;129394;184691;524159;524159;61.0;0.0;96.2
11:28:27.451319;828;142662;121220;129427;184985;524159;524159;61.0;0.0;96.2
11:28:27.620951;829;142909;121272;129452;185289;524159;524159;61.0;0.0;96.2
11:28:27.631022;830;143170;121314;129489;185628;524159;524159;61.0;0.0;96.2
11:28:27.641108;831;143440;121363;129517;185986;524159;524159;61.0;0.0;96.2
11:28:27.651172;832;143717;121409;129549;186349;524159;524159;61.0;0.0;96.2
11:28:27.651172;833;144003;121453;129577;186719;524159;524159;61.0;0.0;96.2
11:28:27.821132;834;144142;121428;129561;186927;524159;524159;61.0;0.0;96.2
11:28:27.835992;835;143567;121193;129399;186260;524159;524159;61.0;0.0;96.2
11:28:27.841027;836;142508;120961;129249;184946;524159;524159;61.0;0.0;96.2
11:28:27.845545;837;141619;120873;129212;183779;524159;524159;61.0;0.0;96.2
11:28:27.851089;838;141067;120841;129196;182996;524159;524159;61.0;0.0;96.2
11:28:28.020892;839;140780;120849;129206;182531;524159;524159;61.0;0.0;96.2
11:28:28.031091;840;140714;120869;129214;182325;524159;524159;61.0;0.0;96.2
11:28:28.041149;841;140665;120868;129212;182149;524159;524159;61.0;0.0;96.2
11:28:28.046191;842;140461;120832;129188;181827;524159;524159;61.0;0.0;96.2
11:28:28.051319;843;140211;120792;129157;181425;524159;524159;61.0;0.0;96.2
11:28:28.221194;844;140032;120780;129162;181119;524159;524159;61.0;917.2;96.2
11:28:28.231242;845;140002;120801;129176;180995;524159;524159;61.0;0.0;96.2
11:28:28.241298;846;140095;120839;129209;181038;524159;524159;61.0;0.0;96.2
11:28:28.246335;847;140251;120871;129223;181180;524159;524159;61.0;0.0;96.2
11:28:28.250862;848;140406;120902;129247;181339;524159;524159;61.0;0.0;96.2
11:28:28.421099;849;140568;120931;129265;181505;524159;524159;61.0;0.0;96.2
11:28:28.431079;850;140711;120952;129277;181653;524159;524159;61.0;0.0;96.2
11:28:28.441146;851;140841;120968;129286;181809;524159;524159;61.0;0.0;96.2
11:28:28.446827;852;140991;120986;129303;181992;524159;524159;61.0;0.0;96.2
11:28:28.450853;853;141180;121026;129328;182203;524159;524159;61.0;0.0;96.2
11:28:28.621106;854;141404;121065;129353;182471;524159;524159;61.0;0.0;96.2
11:28:28.631171;855;141657;121106;129384;182767;524159;524159;61.0;0.0;96.2
11:28:28.641228;856;141920;121160;129420;183092;524159;524159;61.0;0.0;96.2
11:28:28.651003;857;142192;121202;129447;183428;524159;524159;61.0;0.0;96.2
11:28:28.651003;858;142490;121238;129482;183796;524159;524159;61.0;0.0;96.2
11:28:28.820818;859;142712;121258;129490;184093;524159;524159;61.0;0.0;96.2
11:28:28.830884;860;142397;121077;129356;183744;524159;524159;61.0;0.0;96.2
11:28:28.830884;861;141422;120832;129202;182515;524159;524159;61.0;0.0;96.2
11:28:28.847172;862;140494;120705;129125;181279;524159;524159;61.0;0.0;96.2
11:28:28.851199;863;139914;120672;129112;180442;524159;524159;61.0;0.0;96.2
11:28:29.020827;864;139628;120663;129107;179960;524159;524159;61.0;0.0;96.2
11:28:29.031055;865;139579;120685;129130;179766;524159;524159;61.0;0.0;96.2
11:28:29.041059;866;139565;120701;129139;179644;524159;524159;61.0;0.0;96.2
11:28:29.047571;867;139433;120667;129111;179385;524159;524159;61.0;934.9;96.2
11:28:29.051086;868;139203;120611;129073;179021;524159;524159;61.0;0.0;96.2
11:28:29.221030;869;139042;120595;129071;178741;524159;524159;61.0;0.0;96.2
11:28:29.231299;870;139020;120607;129081;178642;524159;524159;61.0;0.0;96.2
11:28:29.231299;871;139123;120640;129102;178717;524159;524159;61.0;0.0;96.2
11:28:29.241198;872;139289;120676;129134;178882;524159;524159;61.0;0.0;96.2
11:28:29.250826;873;139486;120709;129158;179090;524159;524159;61.0;0.0;96.2
11:28:29.420937;874;139681;120730;129166;179311;524159;524159;61.0;0.0;96.2
11:28:29.436066;875;139842;120750;129187;179507;524159;524159;61.0;0.0;96.2
11:28:29.441106;876;140010;120769;129194;179709;524159;524159;60.0;0.0;96.2
11:28:29.451245;877;140190;120797;129211;179931;524159;524159;60.0;0.0;96.2
11:28:29.461055;878;140391;120829;129239;180205;524159;524159;60.0;0.0;96.2
11:28:29.625862;879;140626;120872;129265;180511;524159;524159;60.0;0.0;96.2
11:28:29.630896;880;140884;120920;129302;180853;524159;524159;60.0;0.0;96.2
11:28:29.640977;881;141161;120975;129338;181240;524159;524159;60.0;0.0;96.2
11:28:29.648016;882;141455;121017;129379;181631;524159;524159;60.0;0.0;96.2
11:28:29.651040;883;141532;120983;129336;181784;524159;524159;60.0;0.0;96.2
11:28:29.825845;884;140924;120766;129200;181067;524159;524159;60.0;0.0;96.2
11:28:29.835901;885;139993;120581;129098;179872;524159;524159;60.0;0.0;96.2
11:28:29.840938;886;139313;120521;129065;178926;524159;524159;60.0;0.0;96.2
11:28:29.848505;887;138987;120516;129069;178394;524159;524159;60.0;0.0;96.2
11:28:29.851053;888;138935;120548;129089;178199;524159;524159;60.0;0.0;96.2
11:28:30.021241;889;139023;120585;129122;178203;524159;524159;60.0;0.0;96.2
11:28:30.031347;890;139002;120576;129113;178113;524159;524159;60.0;0.0;96.2
11:28:30.048589;891;138815;120524;129086;177819;524159;524159;60.0;0.0;96.2
11:28:30.051144;892;138628;120504;129072;177523;524159;524159;60.0;0.0;96.2
11:28:30.061091;893;138555;120514;129081;177388;524159;524159;60.0;1036.4;96.2
11:28:30.221149;894;138626;120547;129105;177408;524159;524159;60.0;0.0;96.2
11:28:30.231021;895;138783;120585;129125;177560;524159;524159;60.0;0.0;96.2
11:28:30.240925;896;138971;120619;129152;177791;524159;524159;60.0;0.0;96.2
11:28:30.248474;897;139175;120654;129177;178045;524159;524159;60.0;0.0;96.2
11:28:30.250987;898;139359;120674;129189;178280;524159;524159;60.0;0.0;96.2
11:28:30.426017;899;139533;120693;129206;178509;524159;524159;60.0;0.0;96.2
11:28:30.436068;900;139706;120717;129225;178731;524159;524159;60.0;0.0;96.2
11:28:30.441104;901;139894;120750;129242;178985;524159;524159;60.0;0.0;96.2
11:28:30.451185;902;140128;120794;129271;179287;524159;524159;60.0;0.0;96.2
11:28:30.451185;903;140375;120836;129304;179628;524159;524159;60.0;0.0;96.2
11:28:30.621112;904;140642;120882;129338;179994;524159;524159;60.0;0.0;96.2
11:28:30.631151;905;140938;120932;129371;180394;524159;524159;60.0;0.0;96.2
11:28:30.641196;906;141195;120952;129391;180756;524159;524159;60.0;0.0;96.2
11:28:30.651178;907;140986;120815;129289;180543;524159;524159;60.0;0.0;96.2
11:28:30.661262;908;140110;120570;129129;179444;524159;524159;60.0;0.0;96.2
11:28:30.820932;909;139231;120425;129052;178257;524159;524159;60.0;0.0;96.2
11:28:30.831127;910;138683;120389;129032;177468;524159;524159;60.0;0.0;96.2
11:28:30.841111;911;138426;120386;129027;177042;524159;524159;60.0;0.0;96.2
11:28:30.849431;912;138413;120414;129056;176936;524159;524159;60.0;0.0;96.2
11:28:30.850949;913;138459;120432;129062;176926;524159;524159;60.0;0.0;96.2
11:28:31.021003;914;138365;120399;129037;176792;524159;524159;60.0;0.0;96.2
11:28:31.031022;915;138175;120354;129010;176504;524159;524159;60.0;0.0;96.2
11:28:31.049432;916;138045;120331;129004;176303;524159;524159;60.0;0.0;96.2
11:28:31.050953;917;138033;120354;129014;176262;524159;524159;60.0;0.0;96.2
11:28:31.050953;918;138165;120385;129041;176389;524159;524159;60.0;0.0;96.2
11:28:31.231414;919;138353;120420;129063;176615;524159;524159;60.0;1011.1;96.2
11:28:31.235920;920;138568;120461;129094;176874;524159;524159;60.0;0.0;96.2
11:28:31.240950;921;138782;120483;129109;177139;524159;524159;60.0;0.0;96.2
11:28:31.251105;922;138978;120512;129130;177398;524159;524159;60.0;0.0;96.2
11:28:31.251105;923;139149;120526;129141;177649;524159;524159;60.0;0.0;96.2
11:28:31.426189;924;139335;120555;129161;177891;524159;524159;60.0;0.0;96.2
11:28:31.436251;925;139565;120593;129187;178219;524159;524159;60.0;0.0;96.2
11:28:31.441299;926;139816;120635;129212;178572;524159;524159;60.0;0.0;96.2
11:28:31.451204;927;140091;120678;129242;178954;524159;524159;60.0;0.0;96.2
11:28:31.451204;928;140380;120720;129281;179360;524159;524159;60.0;0.0;96.2
11:28:31.621119;929;140670;120775;129318;179770;524159;524159;60.0;0.0;96.2
11:28:31.641361;930;140973;120825;129344;180203;524159;524159;60.0;0.0;96.2
11:28:31.650961;931;141275;120867;129371;180630;524159;524159;60.0;0.0;96.2
11:28:31.650961;932;141507;120873;129375;180986;524159;524159;60.0;0.0;96.2
11:28:31.650961;933;141121;120670;129242;180569;524159;524159;60.0;0.0;96.2
11:28:31.821338;934;140166;120419;129079;179353;524159;524159;60.0;0.0;96.2
11:28:31.836031;935;139291;120293;129016;178191;524159;524159;60.0;0.0;96.2
11:28:31.841082;936;138754;120259;129003;177445;524159;524159;60.0;0.0;96.2
11:28:31.851171;937;138492;120251;129001;177024;524159;524159;60.0;0.0;96.2
11:28:31.856178;938;138456;120275;129015;176859;524159;524159;60.0;0.0;96.2
11:28:32.030887;939;138471;120281;129022;176796;524159;524159;60.0;0.0;96.2
11:28:32.041048;940;138366;120237;128998;176603;524159;524159;60.0;0.0;96.2
11:28:32.041048;941;138162;120200;128966;176313;524159;524159;60.0;0.0;96.2
11:28:32.051040;942;138032;120184;128960;176110;524159;524159;60.0;939.4;96.2
11:28:32.051040;943;138044;120210;128981;176089;524159;524159;60.0;0.0;96.2
11:28:32.231148;944;138193;120238;129001;176237;524159;524159;60.0;0.0;96.2
11:28:32.241270;945;138382;120277;129025;176459;524159;524159;60.0;0.0;96.2
11:28:32.249976;946;138598;120313;129056;176723;524159;524159;60.0;0.0;96.2
11:28:32.250990;947;138793;120343;129069;177000;524159;524159;60.0;0.0;96.2
11:28:32.260877;948;138985;120362;129086;177271;524159;524159;60.0;0.0;96.1
11:28:32.420837;949;139163;120390;129105;177503;524159;524159;60.0;0.0;96.1
11:28:32.441112;950;139365;120416;129126;177790;524159;524159;60.0;0.0;96.1
11:28:32.446118;951;139574;120453;129143;178099;524159;524159;60.0;0.0;96.1
11:28:32.451198;952;139835;120499;129175;178457;524159;524159;60.0;0.0;96.1
11:28:32.461237;953;140106;120541;129213;178828;524159;524159;60.0;0.0;96.1
11:28:32.631186;954;140399;120599;129254;179242;524159;524159;60.0;0.0;96.1
11:28:32.640856;955;140702;120639;129280;179659;524159;524159;60.0;0.0;96.1
11:28:32.640856;956;141015;120684;129303;180104;524159;524159;60.0;0.0;96.1
11:28:32.651205;957;141335;120726;129329;180537;524159;524159;60.0;0.0;96.1
11:28:32.651205;958;141473;120678;129297;180771;524159;524159;60.0;0.0;96.1
11:28:32.821124;959;140898;120447;129134;180084;524159;524159;60.0;0.0;96.1
11:28:32.841002;960;139950;120235;129000;178880;524159;524159;60.0;0.0;96.1
11:28:32.841002;961;139207;120159;128970;177904;524159;524159;60.0;0.0;96.1
11:28:32.850837;962;138815;120150;128967;177348;524159;524159;60.0;0.0;96.1
11:28:32.850837;963;138674;120168;128984;177099;524159;524159;60.0;0.0;96.1
11:28:33.021338;964;138699;120196;129007;177068;524159;524159;60.0;0.0;96.1
11:28:33.030974;965;138701;120192;129007;177042;524159;524159;60.0;0.0;96.1
11:28:33.040803;966;138587;120147;128976;176864;524159;524159;60.0;942.5;96.1
11:28:33.050926;967;138432;120118;128959;176638;524159;524159;60.0;0.0;96.1
11:28:33.050926;968;138382;120125;128962;176559;524159;524159;60.0;0.0;96.1
11:28:33.230926;969;138469;120151;128990;176649;524159;524159;60.0;0.0;96.1
11:28:33.241024;970;138652;120197;129017;176870;524159;524159;60.0;0.0;96.1
11:28:33.250420;971;138883;120231;129034;177152;524159;524159;60.0;0.0;96.1
11:28:33.250948;972;139111;120265;129065;177463;524159;524159;60.0;0.0;96.1
11:28:33.266086;973;139315;120292;129083;177761;524159;524159;60.0;0.0;96.1
11:28:33.431095;974;139501;120320;129097;178038;524159;524159;60.0;0.0;96.1
11:28:33.440889;975;139696;120343;129109;178321;524159;524159;60.0;0.0;96.1
11:28:33.440889;976;139896;120376;129137;178615;524159;524159;60.0;0.0;96.1
11:28:33.451108;977;140131;120407;129160;178960;524159;524159;60.0;0.0;96.1
11:28:33.451108;978;140395;120456;129192;179336;524159;524159;60.0;0.0;96.1
11:28:33.630991;979;140678;120502;129219;179740;524159;524159;60.0;0.0;96.1
11:28:33.641199;980;140985;120547;129255;180170;524159;524159;60.0;0.0;96.1
11:28:33.650810;981;141283;120605;129290;180604;524159;524159;60.0;0.0;96.1
11:28:33.660849;982;141572;120654;129331;181055;524159;524159;60.0;0.0;96.1
11:28:33.660849;983;141887;120705;129364;181514;524159;524159;60.0;0.0;96.1
11:28:33.830856;984;142079;120694;129360;181837;524159;524159;60.0;0.0;96.1
11:28:33.845926;985;141649;120487;129211;181385;524159;524159;60.0;0.0;96.1
11:28:33.851014;986;140786;120264;129071;180322;524159;524159;60.0;0.0;96.1
11:28:33.860845;987;140083;120175;129030;179437;524159;524159;60.0;0.0;96.1
11:28:33.860845;988;139732;120174;129025;178961;524159;524159;60.0;0.0;96.1
11:28:34.030896;989;139621;120179;129030;178787;524159;524159;60.0;0.0;96.1
11:28:34.035903;990;139696;120208;129048;178848;524159;524159;60.0;0.0;96.1
11:28:34.040948;991;139750;120202;129039;178888;524159;524159;60.0;0.0;96.1
11:28:34.051242;992;139628;120165;129013;178735;524159;524159;60.0;1032.2;96.1
11:28:34.060941;993;139458;120130;128996;178499;524159;524159;60.0;0.0;96.1
11:28:34.231133;994;139384;120143;129007;178386;524159;524159;60.0;0.0;96.1
11:28:34.231133;995;139441;120183;129039;178452;524159;524159;60.0;0.0;96.1
11:28:34.246149;996;139599;120232;129076;178657;524159;524159;60.0;0.0;96.1
11:28:34.256206;997;139815;120276;129105;178939;524159;524159;60.0;0.0;96.1
11:28:34.261267;998;140045;120315;129142;179244;524159;524159;60.0;0.0;96.1
11:28:34.430842;999;140258;120355;129163;179543;524159;524159;60.0;0.0;96.1
11:28:34.435850;1000;140452;120373;129186;179818;524159;524159;60.0;0.0;96.1
11:28:34.445918;1001;140637;120397;129200;180073;524159;524159;60.0;0.0;96.1
11:28:34.450962;1002;140828;120435;129228;180359;524159;524159;60.0;0.0;96.1
11:28:34.461058;1003;141055;120477;129256;180689;524159;524159;60.0;0.0;96.1
11:28:34.631080;1004;141307;120524;129291;181057;524159;524159;60.0;0.0;96.1
11:28:34.640982;1005;141590;120582;129330;181460;524159;524159;60.0;0.0;96.1
11:28:34.651182;1006;141891;120637;129378;181888;524159;524159;60.0;0.0;96.1
11:28:34.651182;1007;142140;120663;129388;182257;524159;524159;60.0;0.0;96.1
11:28:34.661006;1008;141926;120514;129281;182059;524159;524159;60.0;0.0;96.1
11:28:34.831277;1009;141203;120321;129160;181197;524159;524159;60.0;0.0;96.1
11:28:34.831277;1010;140565;120234;129115;180399;524159;524159;60.0;0.0;96.1
11:28:34.840944;1011;140246;120235;129121;179986;524159;524159;60.0;0.0;96.1
11:28:34.850908;1012;140206;120281;129160;179908;524159;524159;60.0;0.0;96.1
11:28:34.860949;1013;140366;120351;129202;180058;524159;524159;60.0;0.0;96.1
11:28:35.031262;1014;140492;120373;129215;180199;524159;524159;60.0;0.0;96.1
11:28:35.041008;1015;140434;120334;129194;180133;524159;524159;60.0;0.0;96.1
11:28:35.041008;1016;140312;120317;129181;179970;524159;524159;60.0;0.0;96.1
11:28:35.051367;1017;140279;120330;129195;179910;524159;524159;60.0;1028.2;96.1
11:28:35.060874;1018;140369;120369;129227;180016;524159;524159;60.0;0.0;96.1
11:28:35.071011;1019;140562;120426;129266;180245;524159;524159;60.0;0.0;96.1
11:28:35.431368;1020;140782;120464;129305;180528;524159;524159;60.0;0.0;96.1
11:28:35.441026;1021;141003;120523;129331;180837;524159;524159;60.0;0.0;96.1
11:28:35.451988;1022;141226;120560;129357;181139;524159;524159;60.0;0.0;96.1
11:28:35.451988;1023;141419;120590;129389;181408;524159;524159;60.0;0.0;96.0
11:28:35.461019;1024;141609;120612;129403;181679;524159;524159;60.0;0.0;96.0
11:28:35.471199;1025;141831;120652;129431;181969;524159;524159;60.0;0.0;96.0
11:28:35.480947;1026;142067;120704;129462;182276;524159;524159;60.0;0.0;96.0
11:28:35.480947;1027;142312;120756;129500;182619;524159;524159;60.0;0.0;96.0
11:28:35.490850;1028;142593;120807;129537;183007;524159;524159;60.0;0.0;96.0
11:28:35.500805;1029;142897;120858;129569;183412;524159;524159;60.0;0.0;96.0
11:28:35.841041;1030;142901;120779;129506;183485;524159;524159;60.0;0.0;96.0
11:28:35.841041;1031;142174;120533;129333;182625;524159;524159;60.0;0.0;96.0
11:28:35.852601;1032;141253;120351;129233;181492;524159;524159;60.0;0.0;96.0
11:28:35.861144;1033;140601;120296;129209;180668;524159;524159;60.0;0.0;96.0
11:28:35.861144;1034;140280;120301;129222;180208;524159;524159;60.0;0.0;96.0
11:28:35.871253;1035;140223;120326;129237;180054;524159;524159;60.0;0.0;96.0
11:28:35.880967;1036;140295;120356;129256;180071;524159;524159;61.0;0.0;96.0
11:28:35.891008;1037;140246;120339;129243;179972;524159;524159;61.0;0.0;96.0
11:28:35.891008;1038;140071;120293;129210;179722;524159;524159;61.0;0.0;96.0
11:28:35.901042;1039;139902;120272;129201;179482;524159;524159;61.0;0.0;96.0
11:28:36.240864;1040;139872;120288;129204;179403;524159;524159;61.0;0.0;96.0
11:28:36.245869;1041;139968;120329;129233;179490;524159;524159;60.0;0.0;96.0
11:28:36.253441;1042;140154;120373;129262;179689;524159;524159;60.0;0.0;96.0
11:28:36.271006;1043;140351;120401;129286;179908;524159;524159;60.0;1042.3;96.0
11:28:36.276012;1044;140551;120434;129305;180158;524159;524159;60.0;0.0;96.0
11:28:36.281035;1045;140719;120457;129323;180388;524159;524159;60.0;0.0;96.0
11:28:36.281035;1046;140895;120487;129343;180623;524159;524159;60.0;0.0;96.0
11:28:36.290875;1047;141063;120506;129356;180845;524159;524159;60.0;0.0;96.0
11:28:36.290875;1048;141270;120545;129382;181092;524159;524159;60.0;0.0;96.0
11:28:36.300935;1049;141521;120589;129409;181396;524159;524159;60.0;0.0;96.0
11:28:36.641236;1050;141769;120634;129433;181729;524159;524159;60.0;0.0;96.0
11:28:36.641236;1051;142050;120686;129470;182098;524159;524159;60.0;0.0;96.0
11:28:36.653824;1052;142323;120726;129510;182468;524159;524159;60.0;0.0;96.0
11:28:36.660872;1053;142593;120785;129533;182852;524159;524159;60.0;0.0;96.0
11:28:36.660872;1054;142877;120825;129563;183243;524159;524159;60.0;0.0;96.0
11:28:36.670994;1055;142972;120758;129511;183402;524159;524159;60.0;0.0;96.0
11:28:36.680775;1056;142262;120483;129322;182569;524159;524159;60.0;0.0;96.0
11:28:36.690826;1057;141134;120248;129176;181178;524159;524159;60.0;0.0;96.0
11:28:36.690826;1058;140235;120156;129121;180011;524159;524159;60.0;0.0;96.0
11:28:36.700769;1059;139658;120110;129105;179218;524159;524159;60.0;0.0;96.0
11:28:37.030912;1060;139318;120091;129098;178698;524159;524159;60.0;0.0;96.0
11:28:37.041043;1061;139182;120097;129099;178425;524159;524159;60.0;0.0;96.0
11:28:37.054195;1062;139060;120093;129096;178198;524159;524159;60.0;0.0;96.0
11:28:37.061244;1063;138842;120045;129060;177858;524159;524159;60.0;0.0;96.0
11:28:37.071012;1064;138605;120009;129033;177500;524159;524159;60.0;0.0;96.0
11:28:37.080875;1065;138474;120004;129045;177264;524159;524159;60.0;0.0;96.0
11:28:37.080875;1066;138488;120033;129059;177204;524159;524159;60.0;927.1;96.0
11:28:37.091050;1067;138609;120067;129080;177284;524159;524159;60.0;0.0;96.0
11:28:37.100869;1068;138766;120094;129101;177442;524159;524159;60.0;0.0;96.0
11:28:37.100869;1069;138907;120117;129118;177627;524159;524159;60.0;0.0;96.0
11:28:37.446200;1070;139061;120143;129132;177832;524159;524159;60.0;0.0;96.0
11:28:37.454324;1071;139199;120162;129137;178012;524159;524159;60.0;0.0;96.0
11:28:37.460852;1072;139352;120182;129154;178216;524159;524159;60.0;0.0;96.0
11:28:37.465857;1073;139539;120204;129178;178453;524159;524159;60.0;0.0;96.0
11:28:37.475939;1074;139759;120253;129194;178733;524159;524159;60.0;0.0;96.0
11:28:37.480971;1075;140003;120293;129223;179060;524159;524159;60.0;0.0;96.0
11:28:37.485976;1076;140271;120338;129255;179424;524159;524159;60.0;0.0;96.0
11:28:37.490997;1077;140559;120390;129289;179790;524159;524159;60.0;0.0;96.0
11:28:37.490997;1078;140846;120432;129324;180185;524159;524159;60.0;0.0;96.0
11:28:37.501026;1079;141119;120481;129349;180576;524159;524159;60.0;0.0;96.0
11:28:37.840775;1080;141383;120529;129380;180967;524159;524159;60.0;0.0;96.0
11:28:37.861032;1081;141695;120579;129417;181406;524159;524159;60.0;0.0;96.0
11:28:37.861032;1082;141885;120567;129407;181708;524159;524159;60.0;0.0;96.0
11:28:37.870913;1083;141365;120341;129237;181132;524159;524159;60.0;0.0;96.0
11:28:37.870913;1084;140293;120081;129079;179814;524159;524159;60.0;0.0;96.0
11:28:37.870913;1085;139365;119961;129006;178607;524159;524159;60.0;0.0;96.0
11:28:37.880779;1086;138765;119912;128989;177820;524159;524159;60.0;0.0;96.0
11:28:37.890762;1087;138429;119905;128984;177325;524159;524159;60.0;0.0;96.0
11:28:37.890762;1088;138314;119916;128993;177083;524159;524159;60.0;0.0;96.0
11:28:37.900779;1089;138255;119919;128993;176928;524159;524159;60.0;899.7;96.0
11:28:38.031162;1090;138095;119876;128970;176666;524159;524159;60.0;0.0;96.0
11:28:38.041255;1091;137879;119832;128937;176338;524159;524159;60.0;0.0;96.0
11:28:38.055694;1092;137766;119822;128926;176123;524159;524159;60.0;0.0;96.0
11:28:38.061244;1093;137778;119842;128949;176085;524159;524159;60.0;0.0;96.0
11:28:38.070989;1094;137917;119884;128974;176215;524159;524159;60.0;0.0;96.0
11:28:38.236000;1095;138102;119920;128998;176420;524159;524159;60.0;0.0;96.0
11:28:38.241045;1096;138301;119956;129022;176670;524159;524159;60.0;0.0;96.0
11:28:38.251096;1097;138498;119982;129037;176933;524159;524159;60.0;0.0;96.0
11:28:38.255619;1098;138681;119990;129042;177180;524159;524159;60.0;0.0;96.0
11:28:38.266154;1099;138860;120021;129057;177424;524159;524159;60.0;0.0;96.0
11:28:38.431051;1100;139053;120042;129073;177686;524159;524159;60.0;0.0;96.0
11:28:38.441050;1101;139283;120083;129098;177991;524159;524159;60.0;0.0;96.0
11:28:38.451020;1102;139544;120125;129130;178354;524159;524159;60.0;0.0;96.0
11:28:38.455549;1103;139825;120176;129161;178746;524159;524159;60.0;0.0;96.0
11:28:38.461071;1104;140115;120218;129193;179153;524159;524159;60.0;0.0;96.0
11:28:38.630815;1105;140420;120273;129227;179577;524159;524159;60.0;0.0;96.0
11:28:38.641057;1106;140723;120326;129261;180014;524159;524159;60.0;0.0;96.0
11:28:38.641057;1107;141037;120375;129294;180465;524159;524159;60.0;0.0;96.0
11:28:38.655996;1108;141353;120418;129323;180915;524159;524159;60.0;0.0;96.0
11:28:38.661020;1109;141426;120351;129280;181078;524159;524159;60.0;0.0;96.0
11:28:38.836222;1110;140762;120097;129097;180293;524159;524159;60.0;0.0;96.0
11:28:38.840762;1111;139836;119907;128986;179124;524159;524159;60.0;0.0;96.0
11:28:38.850768;1112;139197;119851;128962;178249;524159;524159;60.0;0.0;96.0
11:28:38.855981;1113;138867;119844;128965;177778;524159;524159;60.0;0.0;96.0
11:28:38.861025;1114;138769;119867;128980;177587;524159;524159;60.0;1014.0;96.0
11:28:39.031004;1115;138828;119902;129008;177581;524159;524159;60.0;0.0;96.0
11:28:39.041214;1116;138820;119879;128992;177535;524159;524159;60.0;0.0;96.0
11:28:39.056346;1117;138663;119834;128967;177305;524159;524159;60.0;0.0;96.0
11:28:39.060913;1118;138518;119821;128947;177086;524159;524159;60.0;0.0;96.0
11:28:39.060913;1119;138498;119836;128972;177027;524159;524159;60.0;0.0;96.0
11:28:39.235944;1120;138605;119883;128996;177126;524159;524159;60.0;0.0;96.0
11:28:39.241021;1121;138798;119931;129030;177318;524159;524159;60.0;0.0;96.0
11:28:39.256448;1122;139029;119973;129067;177576;524159;524159;60.0;0.0;96.0
11:28:39.260992;1123;139258;120014;129090;177854;524159;524159;60.0;0.0;96.0
11:28:39.270800;1124;139472;120047;129117;178126;524159;524159;60.0;0.0;96.0
11:28:39.436171;1125;139660;120070;129131;178393;524159;524159;60.0;0.0;96.0
11:28:39.441245;1126;139846;120108;129157;178647;524159;524159;60.0;0.0;96.0
11:28:39.451241;1127;140066;120150;129187;178932;524159;524159;60.0;0.0;96.0
11:28:39.456342;1128;140325;120194;129223;179259;524159;524159;60.0;0.0;96.0
11:28:39.460869;1129;140603;120248;129261;179614;524159;524159;60.0;0.0;96.0
11:28:39.640938;1130;140899;120312;129306;180005;524159;524159;60.0;0.0;96.0
11:28:39.651043;1131;141237;120366;129338;180429;524159;524159;60.0;0.0;96.0
11:28:39.661145;1132;141503;120387;129358;180796;524159;524159;60.0;0.0;96.0
11:28:39.661145;1133;141285;120240;129248;180576;524159;524159;60.0;0.0;96.0
11:28:39.661145;1134;140501;120014;129105;179604;524159;524159;60.0;0.0;96.0
11:28:39.836056;1135;139774;119911;129031;178654;524159;524159;60.0;0.0;96.0
11:28:39.846114;1136;139381;119890;129037;178087;524159;524159;60.0;0.0;96.0
11:28:39.856190;1137;139238;119913;129060;177837;524159;524159;60.0;0.0;96.0
11:28:39.861264;1138;139326;119955;129084;177876;524159;524159;60.0;0.0;96.0
11:28:39.870985;1139;139427;119986;129102;177954;524159;524159;60.0;0.0;96.0
11:28:40.036005;1140;139377;119953;129074;177872;524159;524159;60.0;0.0;96.0
11:28:40.041042;1141;139259;119917;129053;177691;524159;524159;60.0;0.0;96.0
11:28:40.051239;1142;139230;119915;129044;177618;524159;524159;60.0;1086.2;96.0
11:28:40.061014;1143;139304;119938;129067;177673;524159;524159;60.0;0.0;96.0
11:28:40.061014;1144;139485;119974;129099;177871;524159;524159;60.0;0.0;96.0
11:28:40.235900;1145;139722;120036;129129;178149;524159;524159;60.0;0.0;96.0
11:28:40.245950;1146;139969;120088;129162;178461;524159;524159;60.0;0.0;96.0
11:28:40.250996;1147;140217;120129;129191;178789;524159;524159;60.0;0.0;96.0
11:28:40.256524;1148;140425;120156;129216;179091;524159;524159;60.0;0.0;96.0
11:28:40.261061;1149;140626;120187;129242;179386;524159;524159;60.0;0.0;96.0
11:28:40.436075;1150;140847;120231;129268;179721;524159;524159;60.0;0.0;96.0
11:28:40.441120;1151;141076;120273;129297;180064;524159;524159;60.0;0.0;96.0
11:28:40.451033;1152;141348;120326;129333;180450;524159;524159;60.0;0.0;96.0
11:28:40.460943;1153;141649;120381;129360;180886;524159;524159;60.0;0.0;96.0
11:28:40.460943;1154;141958;120436;129401;181317;524159;524159;60.0;0.0;96.0
11:28:40.636122;1155;142283;120482;129439;181754;524159;524159;60.0;0.0;96.0
11:28:40.641291;1156;142595;120546;129478;182188;524159;524159;60.0;0.0;96.0
11:28:40.651031;1157;142915;120598;129514;182647;524159;524159;60.0;0.0;96.0
11:28:40.656560;1158;143197;120620;129535;183068;524159;524159;60.0;0.0;96.0
11:28:40.661099;1159;142994;120450;129401;182888;524159;524159;60.0;0.0;96.0
11:28:40.836156;1160;142116;120190;129230;181820;524159;524159;60.0;0.0;96.0
11:28:40.846198;1161;141245;120051;129150;180705;524159;524159;60.0;0.0;96.0
11:28:40.851253;1162;140688;120016;129144;179956;524159;524159;60.0;0.0;96.0
11:28:40.861027;1163;140403;120009;129136;179541;524159;524159;60.0;0.0;96.0
11:28:40.861027;1164;140324;120043;129162;179360;524159;524159;60.0;0.0;96.0
11:28:41.030891;1165;140340;120053;129175;179312;524159;524159;60.0;0.0;96.0
11:28:41.040965;1166;140257;120045;129155;179186;524159;524159;60.0;0.0;96.0
11:28:41.051219;1167;140076;120001;129133;178952;524159;524159;60.0;0.0;96.0
11:28:41.060797;1168;139953;119988;129119;178755;524159;524159;60.0;1064.0;96.0
11:28:41.060797;1169;139958;120014;129148;178730;524159;524159;60.0;0.0;96.0
11:28:41.241165;1170;140093;120059;129175;178846;524159;524159;60.0;0.0;96.0
11:28:41.250946;1171;140270;120091;129203;179053;524159;524159;60.0;0.0;96.0
11:28:41.261187;1172;140484;120144;129237;179314;524159;524159;60.0;0.0;96.0
11:28:41.270946;1173;140689;120179;129255;179588;524159;524159;60.0;0.0;95.9
11:28:41.270946;1174;140882;120209;129270;179849;524159;524159;60.0;0.0;95.9
11:28:41.440971;1175;141064;120231;129292;180107;524159;524159;60.0;0.0;95.9
11:28:41.451235;1176;141263;120257;129311;180388;524159;524159;60.0;0.0;95.9
11:28:41.461087;1177;141486;120305;129334;180705;524159;524159;60.0;0.0;95.9
11:28:41.461087;1178;141739;120351;129368;181060;524159;524159;60.0;0.0;95.9
11:28:41.461087;1179;142016;120396;129411;181430;524159;524159;60.0;0.0;95.9
11:28:41.631060;1180;142312;120460;129436;181832;524159;524159;60.0;0.0;95.9
11:28:41.640919;1181;142615;120516;129482;182242;524159;524159;60.0;0.0;95.9
11:28:41.656461;1182;142911;120572;129508;182658;524159;524159;60.0;0.0;95.9
11:28:41.661012;1183;143211;120622;129548;183098;524159;524159;60.0;0.0;95.9
11:28:41.671042;1184;143468;120636;129564;183463;524159;524159;60.0;0.0;95.9
11:28:41.841237;1185;143188;120448;129420;183211;524159;524159;60.0;0.0;95.9
11:28:41.850914;1186;142345;120208;129267;182198;524159;524159;60.0;0.0;95.9
11:28:41.861021;1187;141548;120094;129195;181183;524159;524159;60.0;0.0;95.9
11:28:41.871174;1188;141071;120070;129181;180559;524159;524159;60.0;0.0;95.9
11:28:41.871174;1189;140823;120069;129185;180211;524159;524159;60.0;0.0;95.9
11:28:42.030900;1190;140796;120103;129213;180137;524159;524159;60.0;0.0;95.9
11:28:42.041024;1191;140827;120127;129218;180149;524159;524159;60.0;941.0;95.9
11:28:42.051039;1192;140738;120099;129205;180035;524159;524159;60.0;0.0;95.9
11:28:42.061036;1193;140595;120065;129178;179835;524159;524159;60.0;0.0;95.9
11:28:42.061036;1194;140503;120054;129184;179704;524159;524159;60.0;0.0;95.9
11:28:42.231204;1195;140524;120091;129198;179725;524159;524159;60.0;0.0;95.9
11:28:42.250988;1196;140665;120131;129231;179884;524159;524159;60.0;0.0;95.9
11:28:42.261046;1197;140851;120185;129261;180112;524159;524159;60.0;0.0;95.9
11:28:42.270786;1198;141064;120219;129288;180393;524159;524159;60.0;0.0;95.9
11:28:42.270786;1199;141264;120244;129311;180684;524159;524159;60.0;0.0;95.9
11:28:42.440883;1200;141458;120276;129334;180981;524159;524159;60.0;0.0;95.9
11:28:42.440883;1201;141634;120300;129351;181245;524159;524159;60.0;0.0;95.9
11:28:42.456662;1202;141839;120334;129367;181536;524159;524159;60.0;0.0;95.9
11:28:42.461210;1203;142069;120370;129399;181849;524159;524159;60.0;0.0;95.9
11:28:42.470979;1204;142312;120418;129434;182189;524159;524159;60.0;0.0;95.9
11:28:42.640928;1205;142586;120471;129458;182573;524159;524159;60.0;0.0;95.9
11:28:42.661274;1206;142864;120521;129504;182970;524159;524159;60.0;0.0;95.9
11:28:42.661274;1207;143159;120577;129542;183392;524159;524159;60.0;0.0;95.9
11:28:42.670895;1208;143452;120623;129576;183799;524159;524159;60.0;0.0;95.9
11:28:42.670895;1209;143503;120555;129518;183943;524159;524159;60.0;0.0;95.9
11:28:42.841264;1210;142926;120334;129368;183291;524159;524159;60.0;0.0;95.9
11:28:42.846269;1211;142154;120186;129277;182371;524159;524159;60.0;0.0;95.9
11:28:42.855835;1212;141624;120147;129261;181715;524159;524159;60.0;0.0;95.9
11:28:42.860890;1213;141390;120164;129275;181406;524159;524159;60.0;0.0;95.9
11:28:42.871006;1214;141405;120212;129310;181384;524159;524159;60.0;0.0;95.9
11:28:43.041043;1215;141511;120253;129339;181484;524159;524159;60.0;0.0;95.9
11:28:43.051146;1216;141520;120234;129327;181487;524159;524159;60.0;0.0;95.9
11:28:43.061244;1217;141371;120195;129301;181285;524159;524159;60.0;0.0;95.9
11:28:43.070871;1218;141247;120180;129303;181118;524159;524159;60.0;1043.8;95.9
11:28:43.080947;1219;141246;120211;129320;181095;524159;524159;60.0;0.0;95.9
11:28:43.245826;1220;141363;120252;129356;181210;524159;524159;60.0;0.0;95.9
11:28:43.260975;1221;141533;120300;129384;181408;524159;524159;60.0;0.0;95.9
11:28:43.260975;1222;141755;120350;129415;181670;524159;524159;60.0;0.0;95.9
11:28:43.260975;1223;141973;120385;129443;181942;524159;524159;60.0;0.0;95.9
11:28:43.270873;1224;142157;120412;129462;182204;524159;524159;60.0;0.0;95.9
11:28:43.441105;1225;142328;120434;129475;182451;524159;524159;60.0;0.0;95.9
11:28:43.457453;1226;142502;120465;129499;182688;524159;524159;60.0;0.0;95.9
11:28:43.461007;1227;142699;120506;129530;182963;524159;524159;60.0;0.0;95.9
11:28:43.466014;1228;142936;120551;129558;183276;524159;524159;60.0;0.0;95.9
11:28:43.471073;1229;143195;120616;129595;183631;524159;524159;60.0;0.0;95.9
11:28:43.641064;1230;143480;120666;129639;184018;524159;524159;60.0;0.0;95.9
11:28:43.641064;1231;143678;120668;129630;184317;524159;524159;60.0;0.0;95.9
11:28:43.656117;1232;143360;120493;129509;183990;524159;524159;60.0;0.0;95.9
11:28:43.661158;1233;142575;120305;129387;183064;524159;524159;60.0;0.0;95.9
11:28:43.670751;1234;141912;120223;129352;182252;524159;524159;60.0;0.0;95.9
11:28:43.841095;1235;141552;120233;129359;181778;524159;524159;60.0;0.0;95.9
11:28:43.860802;1236;141485;120268;129395;181635;524159;524159;60.0;0.0;95.9
11:28:43.860802;1237;141596;120319;129423;181722;524159;524159;60.0;0.0;95.9
11:28:43.860802;1238;141653;120336;129436;181775;524159;524159;60.0;0.0;95.9
11:28:43.871032;1239;141555;120297;129407;181625;524159;524159;60.0;0.0;95.9
11:28:44.041013;1240;141413;120267;129397;181420;524159;524159;60.0;0.0;95.9
11:28:44.061237;1241;141388;120289;129410;181333;524159;524159;60.0;0.0;95.9
11:28:44.071020;1242;141476;120331;129441;181410;524159;524159;60.0;0.0;95.9
11:28:44.076027;1243;141635;120379;129473;181584;524159;524159;60.0;0.0;95.9
11:28:44.076027;1244;141856;120438;129513;181827;524159;524159;60.0;1037.1;95.9
11:28:44.240813;1245;142068;120480;129546;182081;524159;524159;60.0;0.0;95.9
11:28:44.260968;1246;142242;120515;129570;182322;524159;524159;60.0;0.0;95.9
11:28:44.271128;1247;142410;120550;129585;182556;524159;524159;60.0;0.0;95.9
11:28:44.281062;1248;142569;120582;129618;182762;524159;524159;60.0;0.0;95.9
11:28:44.281062;1249;142766;120628;129652;183010;524159;524159;60.0;0.0;95.9
11:28:44.440999;1250;142983;120674;129689;183283;524159;524159;60.0;0.0;95.9
11:28:44.451133;1251;143258;120728;129723;183612;524159;524159;60.0;0.0;95.9
11:28:44.458131;1252;143524;120767;129751;183929;524159;524159;60.0;0.0;95.9
11:28:44.461169;1253;143459;120670;129686;183889;524159;524159;60.0;0.0;95.9
11:28:44.470794;1254;142685;120426;129514;182967;524159;524159;60.0;0.0;95.9
11:28:44.651003;1255;141751;120264;129419;181781;524159;524159;60.0;0.0;95.9
11:28:44.660789;1256;141092;120224;129392;180900;524159;524159;60.0;0.0;95.9
11:28:44.670921;1257;140746;120206;129398;180377;524159;524159;60.0;0.0;95.9
11:28:44.670921;1258;140643;120241;129414;180136;524159;524159;60.0;0.0;95.9
11:28:44.680838;1259;140661;120258;129426;180065;524159;524159;60.0;0.0;95.9
11:28:44.840865;1260;140573;120236;129414;179887;524159;524159;60.0;0.0;95.9
11:28:44.840865;1261;140366;120202;129388;179569;524159;524159;60.0;0.0;95.9
11:28:44.850861;1262;140211;120181;129384;179306;524159;524159;60.0;0.0;95.9
11:28:44.860903;1263;140178;120198;129391;179214;524159;524159;60.0;0.0;95.9
11:28:44.871051;1264;140249;120239;129417;179268;524159;524159;60.0;0.0;95.9
11:28:45.041098;1265;140407;120274;129439;179439;524159;524159;60.0;0.0;95.9
11:28:45.050995;1266;140578;120315;129471;179634;524159;524159;59.0;0.0;95.9
11:28:45.058200;1267;140762;120344;129497;179853;524159;524159;59.0;0.0;95.9
11:28:45.060751;1268;140936;120368;129495;180064;524159;524159;59.0;974.9;95.9
11:28:45.071139;1269;141107;120389;129521;180268;524159;524159;59.0;0.0;95.9
11:28:45.240995;1270;141288;120419;129535;180497;524159;524159;59.0;0.0;95.9
11:28:45.250956;1271;141509;120469;129562;180767;524159;524159;59.0;0.0;95.9
11:28:45.258509;1272;141743;120499;129593;181058;524159;524159;59.0;0.0;95.9
11:28:45.261041;1273;142023;120550;129613;181392;524159;524159;59.0;0.0;95.9
11:28:45.271037;1274;142309;120600;129650;181738;524159;524159;59.0;0.0;95.9
11:28:45.440732;1275;142607;120650;129689;182116;524159;524159;59.0;0.0;95.9
11:28:45.450870;1276;142901;120701;129722;182497;524159;524159;59.0;0.0;95.9
11:28:45.458288;1277;143186;120735;129748;182887;524159;524159;59.0;0.0;95.9
11:28:45.460810;1278;143224;120663;129685;182995;524159;524159;59.0;0.0;95.9
11:28:45.470937;1279;142449;120384;129484;182086;524159;524159;59.0;0.0;95.9
11:28:45.640885;1280;141326;120154;129342;180658;524159;524159;59.0;0.0;95.9
11:28:45.650948;1281;140435;120049;129298;179447;524159;524159;59.0;0.0;95.9
11:28:45.658458;1282;139851;120012;129273;178593;524159;524159;59.0;0.0;95.9
11:28:45.661011;1283;139463;119998;129258;177972;524159;524159;59.0;0.0;95.9
11:28:45.671118;1284;139306;119997;129269;177643;524159;524159;59.0;0.0;95.9
11:28:45.840962;1285;139175;119988;129250;177360;524159;524159;59.0;0.0;95.9
11:28:45.851003;1286;138948;119944;129230;176996;524159;524159;59.0;0.0;95.9
11:28:45.858452;1287;138710;119903;129199;176625;524159;524159;59.0;0.0;95.9
11:28:45.860998;1288;138582;119906;129201;176375;524159;524159;59.0;0.0;95.9
11:28:45.870962;1289;138607;119925;129217;176307;524159;524159;59.0;0.0;95.9
11:28:46.040772;1290;138735;119960;129231;176385;524159;524159;59.0;895.8;95.9
11:28:46.051145;1291;138907;119988;129255;176542;524159;524159;59.0;0.0;95.9
11:28:46.058194;1292;139108;120017;129272;176722;524159;524159;59.0;0.0;95.9
11:28:46.061325;1293;139273;120039;129286;176912;524159;524159;59.0;0.0;95.9
11:28:46.071002;1294;139433;120061;129294;177085;524159;524159;59.0;0.0;95.9
11:28:46.240896;1295;139626;120085;129308;177301;524159;524159;59.0;0.0;95.9
11:28:46.251011;1296;139832;120115;129326;177527;524159;524159;59.0;0.0;95.9
11:28:46.258546;1297;140086;120157;129356;177832;524159;524159;59.0;0.0;95.9
11:28:46.261103;1298;140345;120196;129385;178165;524159;524159;59.0;0.0;95.9
11:28:46.271192;1299;140618;120256;129415;178532;524159;524159;59.0;0.0;95.9
11:28:46.440728;1300;140908;120296;129450;178924;524159;524159;59.0;0.0;95.9
11:28:46.451109;1301;141189;120352;129494;179332;524159;524159;59.0;0.0;95.9
11:28:46.461025;1302;141470;120397;129517;179727;524159;524159;59.0;0.0;95.9
11:28:46.471016;1303;141782;120441;129540;180160;524159;524159;59.0;0.0;95.9
11:28:46.471016;1304;142001;120448;129535;180497;524159;524159;59.0;0.0;95.9
11:28:46.641009;1305;141590;120215;129374;180044;524159;524159;59.0;0.0;95.9
11:28:46.651028;1306;140603;119961;129204;178801;524159;524159;59.0;0.0;95.9
11:28:46.660875;1307;139693;119831;129141;177598;524159;524159;59.0;0.0;95.9
11:28:46.670793;1308;139108;119784;129112;176769;524159;524159;59.0;0.0;95.9
11:28:46.675804;1309;138767;119765;129101;176226;524159;524159;59.0;0.0;95.9
11:28:46.840845;1310;138639;119781;129114;175977;524159;524159;59.0;0.0;95.9
11:28:46.850978;1311;138602;119795;129116;175837;524159;524159;59.0;0.0;95.9
11:28:46.859013;1312;138477;119774;129098;175627;524159;524159;59.0;862.5;95.9
11:28:46.861046;1313;138305;119729;129069;175354;524159;524159;59.0;0.0;95.9
11:28:46.870982;1314;138188;119727;129067;175175;524159;524159;59.0;0.0;95.9
11:28:47.041022;1315;138204;119750;129096;175163;524159;524159;59.0;0.0;95.9
11:28:47.050951;1316;138323;119793;129110;175289;524159;524159;59.0;0.0;95.9
11:28:47.061034;1317;138516;119826;129139;175514;524159;524159;59.0;0.0;95.9
11:28:47.061034;1318;138713;119861;129164;175763;524159;524159;59.0;0.0;95.9
11:28:47.071096;1319;138933;119901;129186;176031;524159;524159;59.0;0.0;95.9
11:28:47.241038;1320;139144;119923;129206;176303;524159;524159;59.0;0.0;95.9
11:28:47.250939;1321;139342;119947;129223;176578;524159;524159;59.0;0.0;95.9
11:28:47.260991;1322;139557;119983;129245;176864;524159;524159;59.0;0.0;95.9
11:28:47.260991;1323;139796;120021;129270;177193;524159;524159;59.0;0.0;96.0
11:28:47.270946;1324;140070;120075;129305;177561;524159;524159;59.0;0.0;96.0
11:28:47.440914;1325;140379;120132;129331;177968;524159;524159;59.0;0.0;96.0
11:28:47.450924;1326;140697;120174;129371;178392;524159;524159;59.0;0.0;96.0
11:28:47.459601;1327;141024;120238;129404;178838;524159;524159;59.0;0.0;96.0
11:28:47.461130;1328;141345;120293;129447;179279;524159;524159;59.0;0.0;96.0
11:28:47.471114;1329;141679;120343;129486;179735;524159;524159;59.0;0.0;96.0
11:28:47.641145;1330;141999;120390;129508;180172;524159;524159;59.0;0.0;96.0
11:28:47.650971;1331;141971;120279;129417;180223;524159;524159;59.0;0.0;96.0
11:28:47.660998;1332;141246;120008;129233;179364;524159;524159;59.0;0.0;96.0
11:28:47.660998;1333;140362;119833;129126;178256;524159;524159;59.0;0.0;96.0
11:28:47.670996;1334;139748;119768;129106;177456;524159;524159;59.0;0.0;96.0
11:28:47.850857;1335;139422;119761;129094;176992;524159;524159;59.0;0.0;96.0
11:28:47.861042;1336;139314;119786;129112;176786;524159;524159;59.0;0.0;96.0
11:28:47.876098;1337;139352;119815;129131;176779;524159;524159;59.0;1014.0;96.0
11:28:47.881148;1338;139340;119799;129124;176733;524159;524159;59.0;0.0;96.0
11:28:47.881148;1339;139208;119758;129097;176548;524159;524159;59.0;0.0;96.0
11:28:48.040827;1340;139098;119743;129082;176387;524159;524159;59.0;0.0;96.0
11:28:48.050968;1341;139106;119768;129092;176380;524159;524159;59.0;0.0;96.0
11:28:48.060762;1342;139242;119807;129124;176526;524159;524159;59.0;0.0;96.0
11:28:48.060762;1343;139443;119859;129156;176771;524159;524159;59.0;0.0;96.0
11:28:48.070981;1344;139673;119894;129190;177061;524159;524159;59.0;0.0;96.0
11:28:48.241119;1345;139909;119931;129220;177395;524159;524159;59.0;0.0;96.0
11:28:48.250972;1346;140131;119967;129246;177721;524159;524159;59.0;0.0;96.0
11:28:48.261035;1347;140359;119991;129255;178044;524159;524159;59.0;0.0;96.0
11:28:48.261035;1348;140582;120021;129280;178349;524159;524159;59.0;0.0;96.0
11:28:48.270971;1349;140814;120064;129302;178674;524159;524159;59.0;0.0;96.0
11:28:48.440790;1350;141076;120106;129335;179045;524159;524159;59.0;0.0;96.0
11:28:48.450726;1351;141360;120162;129370;179452;524159;524159;60.0;0.0;96.0
11:28:48.460765;1352;141682;120220;129415;179885;524159;524159;60.0;0.0;96.0
11:28:48.460765;1353;142004;120274;129448;180345;524159;524159;60.0;0.0;96.0
11:28:48.475982;1354;142340;120337;129489;180811;524159;524159;60.0;0.0;96.0
11:28:48.641085;1355;142684;120400;129529;181299;524159;524159;60.0;0.0;96.0
11:28:48.650970;1356;142967;120414;129551;181712;524159;524159;60.0;0.0;96.0
11:28:48.661018;1357;142748;120240;129421;181537;524159;524159;60.0;0.0;96.0
11:28:48.661018;1358;142026;120016;129273;180689;524159;524159;60.0;0.0;96.0
11:28:48.675702;1359;141398;119925;129222;179885;524159;524159;60.0;0.0;96.0
11:28:48.840996;1360;141059;119922;129232;179440;524159;524159;60.0;0.0;96.0
11:28:48.850967;1361;140987;119951;129256;179303;524159;524159;60.0;0.0;96.0
11:28:48.860951;1362;141097;120007;129295;179387;524159;524159;60.0;0.0;96.0
11:28:48.870959;1363;141213;120031;129309;179520;524159;524159;60.0;0.0;96.0
11:28:48.870959;1364;141194;120005;129283;179508;524159;524159;60.0;1052.5;96.0
11:28:49.040885;1365;141111;119979;129281;179387;524159;524159;60.0;0.0;96.0
11:28:49.050844;1366;141088;119985;129284;179343;524159;524159;60.0;0.0;96.0
11:28:49.061462;1367;141182;120020;129310;179452;524159;524159;60.0;0.0;96.0
11:28:49.061462;1368;141378;120077;129345;179682;524159;524159;60.0;0.0;96.0
11:28:49.070807;1369;141625;120135;129379;179982;524159;524159;60.0;0.0;96.0
11:28:49.250819;1370;141881;120186;129427;180327;524159;524159;60.0;0.0;96.0
11:28:49.261950;1371;142130;120232;129457;180667;524159;524159;60.0;0.0;96.0
11:28:49.261950;1372;142358;120262;129484;180995;524159;524159;60.0;0.0;96.0
11:28:49.270951;1373;142587;120304;129503;181315;524159;524159;60.0;0.0;96.0
11:28:49.270951;1374;142830;120346;129541;181629;524159;524159;60.0;0.0;96.0
11:28:49.440887;1375;143076;120400;129581;181979;524159;524159;60.0;0.0;96.0
11:28:49.450984;1376;143367;120456;129617;182380;524159;524159;60.0;0.0;96.0
11:28:49.471032;1377;143701;120520;129662;182832;524159;524159;60.0;0.0;96.0
11:28:49.471032;1378;143937;120530;129667;183159;524159;524159;60.0;0.0;96.0
11:28:49.471032;1379;143694;120363;129546;182919;524159;524159;60.0;0.0;96.0
11:28:49.641176;1380;143046;120192;129436;182160;524159;524159;60.0;0.0;96.0
11:28:49.650837;1381;142533;120121;129407;181537;524159;524159;61.0;0.0;96.0
11:28:49.662258;1382;142295;120151;129424;181222;524159;524159;61.0;0.0;96.0
11:28:49.662258;1383;142352;120212;129468;181246;524159;524159;61.0;0.0;96.0
11:28:49.670789;1384;142549;120287;129530;181456;524159;524159;61.0;0.0;96.0
11:28:49.840898;1385;142686;120306;129543;181620;524159;524159;61.0;0.0;96.0
11:28:49.850984;1386;142657;120283;129527;181609;524159;524159;61.0;0.0;96.0
11:28:49.862359;1387;142592;120274;129528;181540;524159;524159;61.0;0.0;96.0
11:28:49.870887;1388;142632;120301;129551;181595;524159;524159;61.0;0.0;96.0
11:28:49.870887;1389;142769;120359;129587;181766;524159;524159;61.0;0.0;96.0
11:28:50.040959;1390;142992;120421;129629;182037;524159;524159;61.0;1054.2;96.0
11:28:50.051159;1391;143232;120477;129676;182340;524159;524159;61.0;0.0;96.0
11:28:50.062233;1392;143494;120534;129718;182669;524159;524159;61.0;0.0;96.0
11:28:50.070751;1393;143743;120578;129748;183000;524159;524159;61.0;0.0;96.0
11:28:50.070751;1394;143963;120617;129773;183300;524159;524159;61.0;0.0;96.0
11:28:50.250693;1395;144184;120653;129804;183581;524159;524159;61.0;0.0;96.0
11:28:50.270839;1396;144423;120712;129834;183903;524159;524159;61.0;0.0;96.0
11:28:50.280948;1397;144698;120757;129878;184261;524159;524159;61.0;0.0;96.0
11:28:50.280948;1398;144988;120810;129907;184637;524159;524159;61.0;0.0;95.9
11:28:50.280948;1399;145071;120753;129862;184788;524159;524159;61.0;0.0;95.9
11:28:50.441032;1400;144480;120511;129697;184113;524159;524159;61.0;0.0;95.9
11:28:50.451011;1401;143651;120329;129588;183099;524159;524159;61.0;0.0;95.9
11:28:50.463006;1402;143047;120271;129569;182308;524159;524159;61.0;0.0;95.9
11:28:50.471024;1403;142739;120283;129572;181868;524159;524159;61.0;0.0;95.9
11:28:50.471024;1404;142656;120321;129600;181711;524159;524159;61.0;0.0;95.9
11:28:50.640891;1405;142734;120356;129627;181756;524159;524159;61.0;0.0;95.9
11:28:50.651015;1406;142737;120355;129626;181727;524159;524159;61.0;0.0;95.9
11:28:50.662983;1407;142631;120325;129605;181576;524159;524159;61.0;0.0;95.9
11:28:50.671099;1408;142527;120314;129595;181398;524159;524159;61.0;0.0;95.9
11:28:50.671099;1409;142524;120329;129611;181343;524159;524159;61.0;0.0;95.9
11:28:50.850843;1410;142629;120369;129638;181422;524159;524159;61.0;0.0;95.9
11:28:50.855849;1411;142823;120424;129673;181618;524159;524159;61.0;0.0;95.9
11:28:50.863408;1412;143044;120468;129703;181860;524159;524159;61.0;0.0;95.9
11:28:50.870963;1413;143267;120509;129734;182130;524159;524159;61.0;0.0;95.9
11:28:50.870963;1414;143490;120547;129753;182400;524159;524159;61.0;0.0;95.9
11:28:51.050812;1415;143705;120578;129777;182683;524159;524159;61.0;0.0;95.9
11:28:51.050812;1416;143912;120608;129796;182958;524159;524159;61.0;1021.7;95.9
11:28:51.063484;1417;144122;120649;129814;183251;524159;524159;61.0;0.0;95.9
11:28:51.071018;1418;144372;120695;129855;183585;524159;524159;61.0;0.0;95.9
11:28:51.071018;1419;144643;120750;129896;183945;524159;524159;61.0;0.0;95.9
11:28:51.240973;1420;144938;120801;129928;184347;524159;524159;61.0;0.0;95.9
11:28:51.251117;1421;145245;120859;129963;184779;524159;524159;61.0;0.0;95.9
11:28:51.263933;1422;145479;120866;129968;185104;524159;524159;61.0;0.0;95.9
11:28:51.270972;1423;145090;120640;129807;184699;524159;524159;61.0;0.0;95.9
11:28:51.270972;1424;144100;120373;129632;183536;524159;524159;61.0;0.0;95.9
11:28:51.441033;1425;143153;120238;129550;182377;524159;524159;61.0;0.0;95.9
11:28:51.451206;1426;142511;120194;129532;181572;524159;524159;61.0;0.0;95.9
11:28:51.464292;1427;142127;120178;129523;181049;524159;524159;61.0;0.0;95.9
11:28:51.470812;1428;141956;120194;129536;180780;524159;524159;61.0;0.0;95.9
11:28:51.470812;1429;141893;120209;129543;180649;524159;524159;61.0;0.0;95.9
11:28:51.651133;1430;141758;120189;129535;180465;524159;524159;61.0;0.0;95.9
11:28:51.664263;1431;141566;120146;129503;180206;524159;524159;61.0;0.0;95.9
11:28:51.670800;1432;141421;120139;129494;180004;524159;524159;61.0;0.0;95.9
11:28:51.670800;1433;141397;120160;129518;179952;524159;524159;61.0;0.0;95.9
11:28:51.680868;1434;141487;120191;129535;180038;524159;524159;61.0;0.0;95.9
11:28:51.850830;1435;141661;120238;129568;180214;524159;524159;61.0;0.0;95.9
11:28:51.850830;1436;141858;120277;129579;180424;524159;524159;61.0;0.0;95.9
11:28:51.864643;1437;142066;120310;129611;180672;524159;524159;61.0;872.0;95.9
11:28:51.871185;1438;142258;120332;129621;180927;524159;524159;61.0;0.0;95.9
11:28:51.871185;1439;142447;120359;129635;181167;524159;524159;61.0;0.0;95.9
11:28:52.050424;1440;142655;120398;129665;181440;524159;524159;61.0;0.0;95.9
11:28:52.058419;1441;142896;120438;129681;181749;524159;524159;61.0;0.0;95.9
11:28:52.065415;1442;143147;120480;129717;182092;524159;524159;61.0;0.0;95.9
11:28:52.074412;1443;143433;120541;129750;182473;524159;524159;61.0;0.0;95.9
11:28:52.081439;1444;143733;120594;129785;182861;524159;524159;61.0;0.0;95.9
11:28:52.250706;1445;144036;120646;129822;183269;524159;524159;61.0;0.0;95.9
11:28:52.261703;1446;144347;120701;129856;183679;524159;524159;61.0;0.0;95.9
11:28:52.270699;1447;144675;120745;129890;184117;524159;524159;61.0;0.0;95.9
11:28:52.281692;1448;144998;120803;129919;184555;524159;524159;61.0;0.0;95.9
11:28:52.287688;1449;145220;120797;129907;184880;524159;524159;61.0;0.0;95.9
11:28:52.450435;1450;144759;120551;129726;184406;524159;524159;61.0;0.0;95.9
11:28:52.458554;1451;143750;120289;129566;183251;524159;524159;61.0;0.0;95.9
11:28:52.465377;1452;142845;120166;129497;182145;524159;524159;61.0;0.0;95.9
11:28:52.472802;1453;142284;120140;129487;181420;524159;524159;61.0;0.0;95.9
11:28:52.479777;1454;141964;120132;129485;180958;524159;524159;61.0;0.0;95.9
11:28:52.650610;1455;141867;120151;129507;180745;524159;524159;61.0;0.0;95.9
11:28:52.658420;1456;141822;120168;129513;180626;524159;524159;61.0;0.0;95.9
11:28:52.665420;1457;141707;120139;129492;180466;524159;524159;61.0;0.0;95.9
11:28:52.673415;1458;141516;120104;129462;180214;524159;524159;61.0;830.2;95.9
11:28:52.681421;1459;141388;120103;129465;180016;524159;524159;61.0;0.0;95.9
11:28:52.852420;1460;141392;120127;129474;179995;524159;524159;61.0;0.0;95.9
11:28:52.860414;1461;141507;120172;129516;180106;524159;524159;61.0;0.0;95.9
11:28:52.867410;1462;141676;120215;129544;180291;524159;524159;61.0;0.0;95.9
11:28:52.875407;1463;141875;120258;129563;180543;524159;524159;61.0;0.0;95.9
11:28:52.882401;1464;142087;120292;129596;180805;524159;524159;61.0;0.0;95.9
11:28:53.051421;1465;142281;120327;129607;181067;524159;524159;61.0;0.0;95.9
11:28:53.059420;1466;142473;120352;129629;181315;524159;524159;61.0;0.0;95.9
11:28:53.066424;1467;142686;120390;129648;181591;524159;524159;61.0;0.0;95.9
11:28:53.073898;1468;142912;120430;129679;181885;524159;524159;61.0;0.0;95.9
11:28:53.080605;1469;143166;120476;129704;182227;524159;524159;61.0;0.0;95.9
11:28:53.252421;1470;143435;120531;129742;182592;524159;524159;61.0;0.0;95.9
11:28:53.259415;1471;143717;120592;129780;182983;524159;524159;61.0;0.0;95.9
11:28:53.266421;1472;144009;120647;129821;183397;524159;524159;61.0;0.0;95.9
11:28:53.275476;1473;144322;120701;129856;183838;524159;524159;61.0;0.0;95.9
11:28:53.282469;1474;144633;120756;129892;184259;524159;524159;61.0;0.0;95.9
11:28:53.451298;1475;144694;120687;129838;184400;524159;524159;61.0;0.0;95.9
11:28:53.458601;1476;144031;120415;129658;183648;524159;524159;61.0;0.0;95.9
11:28:53.466633;1477;143103;120216;129531;182528;524159;524159;61.0;0.0;95.9
11:28:53.473522;1478;142418;120148;129498;181644;524159;524159;61.0;0.0;95.9
11:28:53.481635;1479;142056;120145;129497;181135;524159;524159;61.0;0.0;95.9
11:28:53.652865;1480;141928;120172;129515;180898;524159;524159;61.0;0.0;95.9
11:28:53.660420;1481;141968;120209;129542;180897;524159;524159;61.0;0.0;95.9
11:28:53.668416;1482;141972;120208;129537;180855;524159;524159;61.0;944.5;95.9
11:28:53.675416;1483;141852;120172;129519;180672;524159;524159;61.0;0.0;95.9
11:28:53.683424;1484;141707;120153;129500;180463;524159;524159;61.0;0.0;95.9
11:28:53.852417;1485;141664;120164;129515;180367;524159;524159;61.0;0.0;95.9
11:28:53.859421;1486;141757;120203;129546;180432;524159;524159;61.0;0.0;95.9
11:28:53.867410;1487;141923;120245;129570;180597;524159;524159;61.0;0.0;95.9
11:28:53.874408;1488;142134;120301;129602;180814;524159;524159;61.0;0.0;95.9
11:28:53.881404;1489;142385;120335;129636;181102;524159;524159;61.0;0.0;95.9
11:28:54.053147;1490;142613;120369;129658;181370;524159;524159;61.0;0.0;95.9
11:28:54.059597;1491;142811;120397;129673;181633;524159;524159;61.0;0.0;95.9
11:28:54.067595;1492;143035;120427;129693;181918;524159;524159;61.0;0.0;95.9
11:28:54.074795;1493;143256;120465;129719;182223;524159;524159;61.0;0.0;95.9
11:28:54.082743;1494;143499;120509;129743;182557;524159;524159;61.0;0.0;95.9
11:28:54.254818;1495;143779;120557;129787;182938;524159;524159;61.0;0.0;95.9
11:28:54.263806;1496;144073;120615;129826;183328;524159;524159;61.0;0.0;95.9
11:28:54.269804;1497;144380;120673;129855;183750;524159;524159;61.0;0.0;95.9
11:28:54.276146;1498;144692;120729;129890;184186;524159;524159;61.0;0.0;95.8
11:28:54.283591;1499;144934;120734;129896;184540;524159;524159;61.0;0.0;95.8
11:28:54.453137;1500;144635;120540;129758;184262;524159;524159;61.0;0.0;95.8
11:28:54.463131;1501;143821;120308;129604;183308;524159;524159;61.0;0.0;95.8
11:28:54.475137;1502;143086;120194;129542;182398;524159;524159;61.0;0.0;95.8
11:28:54.482129;1503;142667;120181;129539;181830;524159;524159;61.0;0.0;95.8
11:28:54.486127;1504;142529;120203;129559;181588;524159;524159;61.0;0.0;95.8
11:28:54.654412;1505;142599;120253;129594;181614;524159;524159;61.0;0.0;95.8
11:28:54.661408;1506;142673;120267;129605;181679;524159;524159;61.0;0.0;95.8
11:28:54.669410;1507;142631;120245;129578;181590;524159;524159;61.0;0.0;95.8
11:28:54.678404;1508;142521;120210;129561;181407;524159;524159;61.0;0.0;95.8
11:28:54.687400;1509;142456;120215;129566;181289;524159;524159;61.0;1072.9;95.8
11:28:54.853268;1510;142515;120252;129600;181310;524159;524159;61.0;0.0;95.8
11:28:54.862265;1511;142674;120296;129632;181459;524159;524159;61.0;0.0;95.8
11:28:54.869260;1512;142893;120348;129668;181705;524159;524159;61.0;0.0;95.8
11:28:54.875417;1513;143132;120397;129705;181990;524159;524159;61.0;0.0;95.8
11:28:54.883418;1514;143377;120445;129735;182291;524159;524159;61.0;0.0;95.8
11:28:55.054534;1515;143600;120480;129757;182586;524159;524159;61.0;0.0;95.8
11:28:55.062408;1516;143784;120515;129781;182836;524159;524159;61.0;0.0;95.8
11:28:55.069413;1517;144004;120547;129814;183113;524159;524159;61.0;0.0;95.8
11:28:55.077412;1518;144232;120597;129852;183411;524159;524159;61.0;0.0;95.8
11:28:55.084423;1519;144483;120657;129890;183755;524159;524159;61.0;0.0;95.8
11:28:55.254417;1520;144774;120721;129936;184138;524159;524159;61.0;0.0;95.8
11:28:55.261412;1521;145072;120775;129981;184528;524159;524159;61.0;0.0;95.8
11:28:55.269407;1522;145283;120776;129978;184826;524159;524159;61.0;0.0;95.8
11:28:55.277394;1523;144923;120585;129846;184419;524159;524159;61.0;0.0;95.8
11:28:55.284391;1524;144171;120400;129717;183475;524159;524159;61.0;0.0;95.8
11:28:55.454419;1525;143553;120328;129683;182682;524159;524159;61.0;0.0;95.8
11:28:55.461405;1526;143253;120338;129694;182265;524159;524159;61.0;0.0;95.8
11:28:55.468403;1527;143241;120386;129730;182190;524159;524159;61.0;0.0;95.8
11:28:55.476416;1528;143397;120446;129775;182332;524159;524159;61.0;0.0;95.8
11:28:55.483864;1529;143477;120456;129776;182400;524159;524159;61.0;0.0;95.8
11:28:55.655011;1530;143419;120427;129761;182299;524159;524159;61.0;0.0;95.8
11:28:55.663006;1531;143336;120412;129746;182158;524159;524159;61.0;0.0;95.8
11:28:55.670409;1532;143330;120431;129764;182107;524159;524159;61.0;0.0;95.8
11:28:55.678411;1533;143447;120468;129793;182190;524159;524159;61.0;0.0;95.8
11:28:55.685885;1534;143623;120521;129830;182377;524159;524159;61.0;1024.9;95.8
11:28:55.855240;1535;143850;120575;129866;182646;524159;524159;61.0;0.0;95.8
11:28:55.862406;1536;144084;120621;129897;182944;524159;524159;62.0;0.0;95.8
11:28:55.869405;1537;144315;120660;129926;183226;524159;524159;62.0;0.0;95.8
11:28:55.878405;1538;144537;120692;129942;183517;524159;524159;62.0;0.0;95.8
11:28:55.887403;1539;144749;120724;129971;183807;524159;524159;62.0;0.0;95.8
11:28:56.055941;1540;144966;120767;129996;184094;524159;524159;62.0;0.0;95.8
11:28:56.062937;1541;145212;120812;130033;184417;524159;524159;62.0;0.0;95.8
11:28:56.069934;1542;145483;120861;130057;184780;524159;524159;62.0;0.0;95.8
11:28:56.078363;1543;145761;120917;130106;185157;524159;524159;62.0;0.0;95.8
11:28:56.085402;1544;145951;120914;130096;185445;524159;524159;62.0;0.0;95.8
11:28:56.259304;1545;145545;120704;129941;185009;524159;524159;62.0;0.0;95.8
11:28:56.268297;1546;144685;120483;129796;183945;524159;524159;62.0;0.0;95.8
11:28:56.275290;1547;143937;120383;129746;182970;524159;524159;62.0;0.0;95.8
11:28:56.281286;1548;143502;120371;129748;182356;524159;524159;62.0;0.0;95.8
11:28:56.286283;1549;143332;120400;129756;182061;524159;524159;62.0;0.0;95.8
11:28:56.455181;1550;143375;120443;129789;182022;524159;524159;62.0;0.0;95.8
11:28:56.461582;1551;143388;120457;129800;181984;524159;524159;62.0;0.0;95.8
11:28:56.469411;1552;143285;120422;129776;181813;524159;524159;62.0;0.0;95.8
11:28:56.476731;1553;143118;120396;129756;181560;524159;524159;62.0;0.0;95.8
11:28:56.484426;1554;143049;120412;129764;181433;524159;524159;62.0;0.0;95.8
11:28:56.655466;1555;143088;120436;129788;181436;524159;524159;62.0;0.0;95.8
11:28:56.663400;1556;143212;120479;129816;181562;524159;524159;62.0;0.0;95.8
11:28:56.670641;1557;143404;120524;129851;181761;524159;524159;62.0;0.0;95.8
11:28:56.678638;1558;143609;120568;129868;181992;524159;524159;62.0;975.4;95.8
11:28:56.686407;1559;143803;120594;129891;182253;524159;524159;62.0;0.0;95.8
11:28:56.855393;1560;143987;120618;129912;182505;524159;524159;62.0;0.0;95.8
11:28:56.869395;1561;144169;120655;129935;182758;524159;524159;62.0;0.0;95.8
11:28:56.880060;1562;144350;120686;129954;183011;524159;524159;62.0;0.0;95.8
11:28:56.884056;1563;144565;120722;129973;183306;524159;524159;62.0;0.0;95.8
11:28:56.887054;1564;144815;120776;130019;183645;524159;524159;62.0;0.0;95.8
11:28:57.063997;1565;145091;120820;130042;184011;524159;524159;62.0;0.0;95.8
11:28:57.079000;1566;145379;120870;130076;184387;524159;524159;62.0;0.0;95.8
11:28:57.088992;1567;145399;120793;130008;184487;524159;524159;62.0;0.0;95.8
11:28:57.092987;1568;144718;120541;129838;183694;524159;524159;62.0;0.0;95.8
11:28:57.096986;1569;143776;120358;129734;182534;524159;524159;62.0;0.0;95.8
11:28:57.256396;1570;143067;120295;129694;181614;524159;524159;62.0;0.0;95.8
11:28:57.264396;1571;142665;120296;129691;181045;524159;524159;62.0;0.0;95.8
11:28:57.271399;1572;142532;120321;129712;180802;524159;524159;62.0;0.0;95.8
11:28:57.279398;1573;142542;120361;129738;180766;524159;524159;62.0;0.0;95.8
11:28:57.286392;1574;142509;120344;129726;180691;524159;524159;62.0;0.0;95.8
11:28:57.456402;1575;142360;120305;129704;180467;524159;524159;62.0;0.0;95.8
11:28:57.463551;1576;142217;120298;129689;180249;524159;524159;62.0;0.0;95.8
11:28:57.470549;1577;142194;120309;129707;180182;524159;524159;62.0;0.0;95.8
11:28:57.478054;1578;142274;120345;129728;180241;524159;524159;62.0;0.0;95.8
11:28:57.485669;1579;142434;120383;129747;180409;524159;524159;62.0;0.0;95.8
11:28:57.658671;1580;142630;120429;129774;180650;524159;524159;62.0;0.0;95.8
11:28:57.668665;1581;142840;120455;129797;180919;524159;524159;62.0;910.2;95.8
11:28:57.679169;1582;143042;120478;129804;181170;524159;524159;62.0;0.0;95.8
11:28:57.689162;1583;143229;120508;129827;181409;524159;524159;62.0;0.0;95.8
11:28:57.692160;1584;143437;120530;129840;181669;524159;524159;62.0;0.0;95.8
11:28:57.857350;1585;143663;120560;129860;181956;524159;524159;62.0;0.0;95.8
11:28:57.867348;1586;143907;120600;129888;182280;524159;524159;62.0;0.0;95.8
11:28:57.874342;1587;144179;120652;129916;182632;524159;524159;62.0;0.0;95.8
11:28:57.881338;1588;144488;120699;129949;183039;524159;524159;62.0;0.0;95.8
11:28:57.886338;1589;144788;120743;129981;183436;524159;524159;62.0;0.0;95.8
11:28:58.063667;1590;144865;120675;129923;183590;524159;524159;62.0;0.0;95.8
11:28:58.075642;1591;144215;120442;129760;182872;524159;524159;62.0;0.0;95.8
11:28:58.080638;1592;143312;120254;129643;181767;524159;524159;62.0;0.0;95.8
11:28:58.084635;1593;142650;120193;129613;180911;524159;524159;62.0;0.0;95.8
11:28:58.087633;1594;142324;120186;129610;180442;524159;524159;62.0;0.0;95.8
11:28:58.260426;1595;142254;120223;129637;180278;524159;524159;62.0;0.0;95.8
11:28:58.269415;1596;142340;120256;129662;180321;524159;524159;62.0;0.0;95.8
11:28:58.276920;1597;142345;120250;129649;180301;524159;524159;62.0;0.0;95.8
11:28:58.283915;1598;142214;120211;129623;180121;524159;524159;62.0;0.0;95.8
11:28:58.289911;1599;142103;120194;129614;179946;524159;524159;62.0;0.0;95.8
11:28:58.457399;1600;142099;120209;129625;179908;524159;524159;62.0;0.0;95.8
11:28:58.464880;1601;142233;120244;129650;180035;524159;524159;62.0;0.0;95.8
11:28:58.471575;1602;142421;120288;129680;180244;524159;524159;62.0;0.0;95.8
11:28:58.479573;1603;142652;120328;129704;180523;524159;524159;62.0;885.3;95.8
11:28:58.486717;1604;142888;120367;129734;180825;524159;524159;62.0;0.0;95.8
11:28:58.662471;1605;143094;120390;129749;181119;524159;524159;62.0;0.0;95.8
11:28:58.669466;1606;143290;120420;129763;181384;524159;524159;62.0;0.0;95.8
11:28:58.677461;1607;143483;120437;129772;181657;524159;524159;62.0;0.0;95.8
11:28:58.683455;1608;143711;120486;129804;181962;524159;524159;62.0;0.0;95.8
11:28:58.688453;1609;143957;120528;129840;182300;524159;524159;62.0;0.0;95.8
11:28:58.858568;1610;144236;120583;129880;182689;524159;524159;62.0;0.0;95.8
11:28:58.866374;1611;144540;120634;129918;183105;524159;524159;62.0;0.0;95.8
11:28:58.873970;1612;144612;120578;129872;183263;524159;524159;62.0;0.0;95.8
11:28:58.881395;1613;144073;120385;129729;182686;524159;524159;62.0;0.0;95.8
11:28:58.888767;1614;143291;120236;129646;181771;524159;524159;62.0;0.0;95.8
11:28:58.895968;1615;142742;120191;129629;181096;524159;524159;62.0;0.0;95.8
11:28:59.264972;1616;142537;120218;129645;180801;524159;524159;62.0;0.0;95.8
11:28:59.271969;1617;142625;120279;129691;180857;524159;524159;62.0;0.0;95.8
11:28:59.279384;1618;142797;120320;129714;181015;524159;524159;62.0;0.0;95.8
11:28:59.286964;1619;142799;120301;129689;181003;524159;524159;62.0;0.0;95.8
11:28:59.294351;1620;142681;120270;129689;180874;524159;524159;62.0;0.0;95.8
11:28:59.301568;1621;142589;120270;129683;180774;524159;524159;62.0;0.0;95.8
11:28:59.308570;1622;142638;120309;129705;180833;524159;524159;62.0;0.0;95.8
11:28:59.316392;1623;142786;120359;129747;181011;524159;524159;62.0;0.0;95.8
11:28:59.323694;1624;142995;120414;129790;181269;524159;524159;62.0;0.0;95.8
11:28:59.331145;1625;143221;120470;129816;181585;524159;524159;62.0;0.0;95.8
11:28:59.664110;1626;143451;120516;129849;181891;524159;524159;62.0;909.2;95.8
11:28:59.680102;1627;143660;120540;129881;182180;524159;524159;62.0;0.0;95.8
11:28:59.695092;1628;143867;120579;129908;182476;524159;524159;62.0;0.0;95.8
11:28:59.702086;1629;144086;120625;129938;182782;524159;524159;62.0;0.0;95.8
11:28:59.707082;1630;144329;120668;129967;183108;524159;524159;62.0;0.0;95.8
11:28:59.711112;1631;144559;120697;129986;183430;524159;524159;62.0;0.0;95.8
11:28:59.716077;1632;144335;120555;129886;183213;524159;524159;62.0;0.0;95.8
11:28:59.720073;1633;143556;120354;129753;182308;524159;524159;62.0;0.0;95.8
11:28:59.724071;1634;142797;120257;129698;181384;524159;524159;62.0;0.0;95.8
