280
278
279
277
274
275
276
274
270
269
269
268
265
265
266
264
262
263
264
260
258
259
259
256
255
258
259
256
255
256
258
256
256
257
257
254
252
254
253
250
249
250
250
247
248
250
247
245
247
244
242
243
245
243
240
243
246
246
246
247
248
249
253
259
263
263
261
261
265
266
267
267
263
254
249
250
250
249
249
252
252
250
250
254
252
252
263
288
314
331
324
302
273
241
209
217
247
260
261
263
262
262
265
266
265
266
268
272
270
270
273
272
273
277
279
278
280
283
284
283
285
289
290
290
293
297
298
298
303
308
310
311
316
321
322
323
325
328
326
325
324
320
313
303
297
289
281
275
272
269
264
262
264
264
260
260
262
261
260
261
264
264
262
265
267
268
267
268
269
269
269
270
271
272
271
274
273
273
275
277
275
273
274
276
276
276
278
278
276
278
280
281
278
279
282
282
281
282
283
284
283
285
288
288
286
287
290
290
288
290
293
291
290
292
295
294
293
295
297
296
295
297
298
298
298
300
300
298
298
302
302
301
305
311
313
313
314
317
318
319
320
318
311
303
301
300
298
299
302
302
300
301
303
301
300
309
327
351
376
378
354
325
298
263
260
287
303
306
307
304
304
306
307
304
305
307
308
307
309
311
312
311
312
315
316
315
316
320
319
319
322
325
325
326
329
333
333
333
338
343
344
346
351
355
356
360
362
361
359
360
358
351
343
337
330
321
315
313
308
302
300
302
301
300
301
303
303
302
302
304
304
303
304
306
305
304
306
308
307
306
309
311
310
309
311
314
312
312
314
315
313
312
313
314
312
312
315
316
312
314
318
317
315
316
318
317
316
319
318
316
318
322
320
319
320
322
320
319
320
323
320
321
322
324
321
320
323
324
322
321
324
323
322
322
324
325
322
323
325
325
323
323
325
325
322
321
324
324
324
325
326
325
324
325
327
325
323
325
327
327
329
334
338
336
335
341
345
341
341
343
342
336
333
327
321
320
322
322
321
321
324
324
320
321
327
337
351
380
409
404
377
350
318
283
294
318
329
327
324
325
328
327
328
331
332
331
332
335
336
333
333
337
340
339
338
341
341
341
343
346
347
347
348
352
352
352
354
360
361
361
364
369
371
371
374
377
378
380
381
378
374
370
364
352
344
338
332
324
318
318
317
311
310
312
312
309
308
312
312
311
311
313
312
310
311
313
312
311
312
314
314
312
315
317
315
313
315
317
316
315
317
318
315
314
315
317
314
312
315
317
315
315
317
317
314
313
317
319
317
317
318
317
317
319
320
317
317
319
318
316
318
320
317
315
318
320
318
317
319
320
318
317
318
320
318
317
319
319
317
317
319
320
316
316
319
319
316
316
320
321
317
318
321
320
318
318
321
320
317
319
320
319
318
320
325
327
329
334
338
339
338
338
341
337
337
336
332
323
319
319
316
315
318
320
317
318
320
319
316
320
332
350
379
408
404
376
343
309
280
294
317
326
330
326
323
325
328
326
325
328
330
328
327
331
334
332
332
334
335
334
335
339
339
337
338
341
344
343
346
349
351
350
354
358
360
359
364
369
371
374
377
376
374
376
377
372
364
358
352
341
333
328
324
318
313
312
310
308
307
309
309
306
306
309
309
307
308
311
310
308
308
313
312
310
311
315
314
313
314
317
317
316
317
319
318
317
318
320
319
317
319
320
319
318
321
322
319
318
320
321
319
322
322
319
319
322
323
321
322
324
324
323
322
325
325
322
324
327
326
324
326
327
325
324
326
329
328
327
328
330
329
329
331
331
329
328
331
331
330
330
332
333
330
328
331
332
329
330
335
336
337
340
347
348
343
345
350
352
348
347
345
335
330
331
332
326
329
330
329
328
331
333
330
336
358
384
401
394
374
351
322
288
292
321
334
336
338
337
335
337
339
339
338
338
341
341
340
348
348
338
336
340
342
342
342
345
348
348
348
351
354
354
353
358
361
360
362
366
369
369
371
376
379
378
378
382
382
379
378
372
369
356
340
332
327
324
323
320
315
314
317
315
313
315
315
315
314
316
317
315
313
316
316
314
312
316
319
322
310
306
311
312
313
316
315
312
312
315
315
314
313
317
323
323
327
328
331
347
349
333
315
306
310
316
316
312
315
318
315
314
316
317
320
311
310
310
310
312
314
311
312
315
315
313
314
316
316
314
314
317
314
310
312
317
319
320
325
336
334
321
323
329
331
331
329
327
318
313
314
315
313
311
314
316
314
313
316
317
317
326
351
378
388
368
356
341
300
268
284
310
319
317
309
296
288
290
302
320
324
327
324
317
315
317
317
319
327
334
323
320
326
330
331
332
333
336
338
340
346
350
348
349
354
356
355
359
365
367
365
366
372
378
364
357
357
352
342
336
332
323
316
313
312
309
305
306
308
304
302
305
308
304
303
306
309
307
307
309
311
309
308
312
310
312
314
314
310
310
312
315
312
310
313
312
310
311
313
311
309
311
312
310
309
311
313
310
308
309
311
309
310
313
314
311
310
313
314
312
311
314
315
313
313
317
317
313
314
316
315
312
313
316
316
313
313
316
316
315
319
321
319
318
321
324
323
326
332
330
324
321
318
315
313
315
316
314
313
315
316
313
313
316
318
316
320
336
357
376
374
355
334
312
283
275
300
318
322
323
322
321
322
325
324
322
324
327
326
324
327
329
327
326
331
332
329
328
332
334
333
333
337
339
338
339
342
345
345
346
351
353
353
356
357
361
366
371
368
365
365
364
357
346
339
333
323
316
314
313
307
304
305
306
303
301
303
304
302
301
305
305
302
303
305
305
302
304
307
307
304
304
307
307
306
305
307
306
304
306
308
306
304
306
308
307
305
307
307
304
304
305
306
304
304
309
307
307
309
310
308
309
310
310
307
308
311
312
310
311
313
314
311
312
316
315
312
313
317
315
313
314
317
316
315
318
320
317
316
318
320
318
316
319
320
319
317
320
322
319
318
321
322
320
320
322
323
320
321
324
323
320
322
324
323
320
323
326
324
323
328
331
334
338
341
340
336
341
345
341
337
337
335
325
320
322
323
320
319
323
323
320
319
322
321
323
335
362
394
399
383
363
337
299
290
313
325
326
326
328
326
324
326
329
326
324
326
329
329
328
330
332
331
330
333
335
333
334
337
338
336
338
342
342
344
347
348
349
352
358
359
360
362
367
367
367
369
373
372
370
368
367
360
351
344
338
330
322
321
319
314
311
311
313
308
308
310
310
308
308
311
312
309
307
310
311
309
309
310
311
309
310
313
312
309
311
315
314
311
312
314
313
311
312
314
313
312
317
313
311
315
317
314
312
315
317
315
314
316
318
314
315
318
319
316
316
318
317
315
316
319
319
316
317
320
320
318
319
321
320
317
319
321
320
319
320
322
320
320
321
322
320
319
321
322
319
318
322
324
321
319
322
324
322
322
324
323
319
320
323
323
321
323
324
324
330
336
336
336
339
343
340
339
342
344
340
336
332
325
320
317
320
322
320
319
322
322
319
319
321
326
332
350
383
402
388
365
342
308
280
298
321
326
325
325
327
326
322
323
327
326
324
327
329
327
326
328
332
330
330
332
334
334
334
337
338
338
341
345
345
345
350
352
351
353
359
361
361
365
370
371
369
371
373
373
371
368
365
357
346
339
333
325
318
316
314
310
307
308
309
307
304
307
307
307
306
309
309
306
307
310
311
307
307
310
311
309
308
312
313
311
312
314
313
310
312
315
313
310
316
314
312
314
315
313
311
313
316
316
313
315
317
315
315
318
318
316
315
318
317
314
315
318
317
315
314
317
317
315
316
319
319
316
317
320
319
316
318
320
319
316
317
321
319
317
319
321
318
317
319
322
319
318
321
321
319
318
321
322
321
322
325
324
320
322
323
322
322
324
323
322
323
325
324
322
323
325
324
322
324
330
332
335
338
344
344
342
345
346
343
339
340
336
325
321
323
325
320
319
323
324
322
320
322
324
323
329
344
369
399
403
382
353
322
287
289
315
326
329
331
328
325
328
329
328
327
329
330
329
333
335
332
332
335
337
335
335
339
341
341
342
345
346
344
346
350
352
352
354
359
360
360
364
368
369
371
374
377
375
374
375
375
369
363
356
350
339
330
326
323
316
313
313
312
309
308
310
309
308
308
310
311
310
310
312
312
310
312
314
313
310
316
315
313
314
317
315
312
314
316
313
313
315
317
314
313
314
315
313
313
317
318
314
314
317
318
316
315
319
319
317
315
320
320
318
317
320
320
318
318
320
320
318
319
322
320
318
319
323
321
318
320
322
321
320
323
325
323
322
323
325
323
322
325
325
323
325
325
323
323
326
327
324
325
330
332
333
337
342
338
334
338
345
343
337
336
330
322
320
322
324
321
319
322
324
321
321
325
325
326
342
370
395
389
367
349
325
288
276
305
326
326
326
330
331
327
328
332
332
330
332
334
333
331
333
337
336
335
336
338
336
338
343
342
341
345
349
348
347
352
354
354
355
361
364
365
367
371
373
371
372
377
375
371
368
367
358
347
340
335
328
320
319
326
317
303
302
307
307
305
306
309
307
306
308
310
310
307
310
312
310
311
313
313
312
312
314
314
311
312
314
314
314
312
306
306
309
313
313
309
311
313
312
309
312
314
312
310
311
314
312
313
314
314
313
314
316
317
314
313
317
318
314
313
317
318
315
314
320
325
313
309
314
317
314
315
318
318
316
320
323
323
321
323
327
326
324
327
331
332
332
330
327
320
317
317
317
314
318
319
316
317
319
320
318
317
324
335
352
372
378
358
337
319
294
273
290
317
328
324
322
325
329
328
325
328
330
328
326
330
333
331
330
333
334
333
333
336
336
335
335
339
341
339
340
345
346
344
346
352
354
353
356
361
364
364
366
369
370
368
368
366
359
353
346
336
326
323
320
314
308
308
309
305
303
303
305
302
300
304
305
303
304
306
307
305
306
309
309
306
307
309
309
307
308
311
310
307
307
310
310
307
307
309
309
306
306
309
307
306
308
309
307
306
308
310
307
305
308
309
307
306
309
309
307
309
310
307
307
310
311
311
311
313
313
314
315
316
317
317
321
326
324
316
311
310
308
306
306
309
308
306
308
311
308
306
310
312
311
317
335
359
376
364
342
322
295
264
274
303
313
313
317
316
314
315
318
318
315
316
320
319
318
319
322
320
320
322
325
324
327
329
328
328
332
334
333
334
338
340
340
341
345
349
349
352
356
358
357
357
361
360
357
354
351
343
333
326
322
314
306
304
302
299
297
296
298
296
293
295
297
295
295
297
299
298
296
299
301
298
298
302
302
302
301
303
304
302
302
306
304
302
304
307
305
305
308
308
304
306
308
307
305
308
311
310
307
309
311
311
310
312
315
313
312
314
316
314
312
317
318
314
314
317
318
315
315
319
319
316
317
319
320
318
318
321
320
318
320
322
320
317
320
324
323
321
322
324
323
321
324
326
324
322
324
328
325
325
328
325
325
329
331
331
330
332
332
332
336
338
338
337
342
345
341
334
330
330
327
323
324
328
327
324
325
328
326
324
326
330
337
353
384
407
394
369
347
317
288
302
325
333
330
328
330
331
330
329
332
332
330
330
333
333
330
333
337
337
335
336
339
337
339
343
343
341
345
347
347
347
350
354
354
355
360
364
364
365
369
371
371
371
375
374
370
366
364
357
346
338
334
328
321
318
317
314
310
310
312
310
307
308
310
309
307
310
312
310
308
310
312
311
309
311
313
310
309
312
312
310
309
312
314
311
309
313
311
311
313
314
311
311
314
315
312
312
314
314
312
315
317
315
312
314
316
315
313
314
315
314
312
315
317
315
314
316
317
314
313
316
317
315
315
317
318
315
315
318
318
316
316
318
319
316
317
320
319
317
319
322
321
319
320
322
320
318
319
321
321
322
323
321
318
321
324
320
319
321
323
321
321
324
328
327
326
328
330
331
332
333
334
336
339
339
333
327
323
322
320
318
320
322
322
319
320
322
322
321
324
329
337
355
388
405
386
358
336
303
283
304
324
329
326
324
327
327
325
324
329
328
327
327
329
329
330
333
333
331
333
336
335
334
338
342
341
340
343
347
346
346
349
354
353
354
359
363
363
364
369
371
370
370
374
374
370
365
362
354
342
336
332
326
318
314
314
312
308
307
308
306
305
307
310
309
306
307
310
309
306
308
310
308
307
310
311
309
309
313
310
310
312
312
309
311
314
314
311
312
314
313
310
311
314
313
310
312
315
313
312
313
316
314
311
312
315
314
312
314
315
312
311
314
316
314
313
315
317
314
314
316
318
315
315
318
318
316
315
318
319
316
316
320
320
317
318
321
320
318
319
321
320
320
322
320
318
321
324
321
319
321
323
320
320
321
324
322
321
323
325
323
322
326
328
327
328
329
331
333
336
338
337
338
341
344
339
332
328
326
324
322
324
326
325
323
325
327
325
323
325
326
329
342
368
400
403
378
352
327
290
286
315
330
330
328
330
329
329
332
331
329
331
334
332
331
332
335
336
334
335
338
338
337
341
344
342
342
345
349
348
348
351
354
354
356
361
364
365
366
370
372
371
371
376
376
373
370
368
361
350
342
338
331
323
318
317
313
309
309
311
309
306
308
310
307
306
308
310
308
308
313
310
310
313
315
313
311
314
315
313
313
316
317
312
313
315
315
313
313
316
315
313
314
316
315
313
314
316
314
313
315
316
315
313
316
318
316
315
318
320
317
315
318
320
317
316
319
320
317
318
321
320
319
318
320
320
317
318
321
321
319
320
323
322
321
322
321
320
322
324
321
319
322
327
331
322
317
321
320
319
322
324
325
327
331
331
330
333
336
334
332
336
343
342
334
330
327
324
321
323
325
324
322
323
326
323
321
324
326
326
333
359
390
399
380
360
338
305
276
291
321
328
327
330
331
329
329
333
331
331
336
336
332
332
337
338
336
337
340
340
337
339
344
344
343
345
349
349
349
353
357
356
356
361
365
366
366
371
374
374
373
376
377
373
370
369
362
351
344
338
331
321
316
314
312
307
307
308
305
302
304
306
305
303
304
307
306
304
306
308
305
303
308
306
306
308
310
308
306
309
310
307
306
309
309
307
306
308
308
305
306
309
308
305
306
309
308
305
306
309
307
304
306
310
309
306
307
309
308
307
308
311
309
306
309
310
308
307
309
310
308
308
310
310
308
308
310
310
308
308
311
311
308
309
311
311
309
312
311
309
309
312
312
309
310
312
311
310
313
318
317
315
316
320
322
321
323
328
328
327
327
323
314
309
310
310
309
309
313
313
311
310
313
313
310
312
326
344
370
388
375
347
322
294
269
283
308
318
320
319
317
319
321
319
319
320
321
319
320
322
322
322
326
327
324
325
329
329
328
328
331
333
332
334
338
339
337
341
346
348
349
352
356
358
358
362
366
364
362
364
365
359
351
346
338
328
319
317
313
307
302
303
302
299
298
300
300
297
297
300
300
300
300
303
302
301
302
305
304
301
304
306
305
302
308
307
305
308
310
308
306
308
310
308
306
308
310
308
307
310
311
308
307
311
312
309
310
313
312
310
310
314
314
312
312
315
315
312
314
317
315
312
314
317
316
314
317
319
317
315
318
320
317
316
319
322
318
318
321
322
319
318
320
322
320
319
322
323
320
323
323
320
321
324
322
319
321
327
328
325
327
331
335
333
333
337
339
340
340
336
331
324
323
323
322
322
324
326
323
322
324
326
324
323
332
347
368
397
402
380
351
324
291
290
314
328
333
331
327
328
331
330
330
332
334
332
330
333
335
334
333
336
336
336
340
343
340
340
345
346
344
345
349
351
350
351
356
359
359
362
367
369
369
371
374
374
373
375
376
372
365
360
354
345
334
329
325
319
314
313
313
309
308
310
310
307
306
309
310
309
308
310
312
309
309
313
312
309
310
314
314
312
313
314
314
311
315
313
311
312
315
312
311
313
315
314
312
314
316
314
313
316
316
313
312
316
317
314
313
316
316
315
314
317
317
314
315
318
317
315
316
320
319
316
317
319
317
315
318
320
317
316
318
320
318
316
318
320
319
317
319
321
319
318
320
322
320
320
321
322
319
323
323
321
320
323
323
321
324
329
328
325
328
335
335
330
332
338
341
338
334
331
325
318
320
322
321
319
322
323
321
320
322
323
320
326
342
367
393
398
377
349
319
285
283
310
322
325
329
328
324
325
328
328
326
328
331
330
329
330
334
332
330
332
335
335
337
339
339
338
341
344
343
343
347
351
350
352
357
360
360
363
369
371
370
372
376
378
375
373
374
368
361
353
348
338
328
324
322
318
312
312
313
310
307
309
310
308
307
311
313
310
309
312
313
312
312
314
315
312
312
316
316
313
312
315
315
312
315
314
313
314
316
315
312
314
316
314
312
314
317
316
314
315
316
314
313
315
316
313
312
315
316
314
313
317
317
314
314
318
318
315
316
319
317
315
316
319
319
317
318
320
319
317
318
321
320
317
319
321
320
319
321
322
321
319
321
324
321
320
322
324
322
325
325
324
327
331
333
330
333
340
336
333
338
343
341
335
331
329
324
320
321
324
323
320
321
324
322
320
322
322
322
332
358
386
396
378
357
333
299
274
291
321
327
325
329
331
329
328
331
332
329
330
334
333
332
333
336
336
333
335
339
337
336
339
342
341
343
348
347
347
351
354
353
354
359
363
363
364
368
371
370
371
374
374
370
368
367
360
348
339
334
327
318
312
311
308
303
302
304
301
298
299
301
299
298
300
302
302
300
302
304
302
300
303
305
302
302
304
305
302
302
304
304
301
301
304
304
302
304
304
301
301
304
302
300
302
305
304
302
303
306
304
303
304
306
303
303
305
307
306
304
306
308
305
304
307
307
305
305
307
308
306
306
309
310
307
306
310
310
309
307
309
310
308
309
311
310
308
309
312
311
310
310
312
310
310
312
317
318
315
317
321
321
323
326
326
328
330
325
319
314
314
312
310
311
313
313
311
312
314
314
312
312
322
336
358
387
395
371
342
318
283
276
300
319
323
321
319
321
323
322
320
322
325
324
323
326
327
324
325
328
330
329
329
333
334
332
333
338
338
337
339
344
345
344
347
353
353
358
363
364
364
368
371
370
369
371
371
365
360
355
348
337
329
325
320
314
310
310
308
304
304
308
307
303
303
305
306
304
305
307
308
307
309
312
310
307
309
312
310
308
310
312
312
309
311
313
310
309
311
314
311
311
313
314
311
310
313
314
313
314
314
311
311
315
316
313
313
316
314
313
313
316
315
312
313
317
317
314
315
316
315
314
317
318
316
314
317
320
316
315
318
320
317
315
319
319
317
318
321
321
318
318
321
320
318
318
321
322
319
320
323
322
320
321
325
323
321
322
325
323
321
322
326
327
332
334
334
337
342
341
338
338
341
340
335
329
325
322
318
318
321
323
320
319
323
322
319
319
325
335
354
386
410
398
366
339
308
280
296
321
330
328
325
326
328
326
325
328
329
327
326
330
332
330
330
332
335
333
332
336
338
336
336
341
342
341
343
347
346
350
354
356
356
358
364
365
367
370
374
373
372
376
377
374
368
365
359
349
338
332
326
318
314
314
312
307
306
310
309
305
304
307
307
305
306
309
307
306
308
311
310
307
311
314
312
309
312
314
312
310
313
315
312
311
314
315
312
311
313
314
311
313
313
311
311
314
314
312
311
315
316
312
313
316
316
313
314
317
316
314
315
318
316
315
317
319
317
316
319
321
318
316
320
321
318
317
320
321
319
320
323
323
319
319
323
324
321
320
322
322
320
322
325
323
321
322
326
326
323
324
328
325
322
324
326
323
326
329
329
331
337
341
338
338
342
346
344
341
343
343
337
330
327
324
320
321
324
325
322
322
325
324
321
321
330
348
374
400
401
378
348
322
289
282
308
328
332
329
329
332
333
330
329
333
335
333
333
336
338
336
336
339
340
338
346
347
339
336
340
348
346
348
352
354
353
355
361
361
361
366
371
373
373
377
380
381
381
382
383
376
369
365
358
347
338
334
330
327
326
317
310
308
310
313
313
310
311
313
314
311
312
314
315
312
314
316
315
312
314
316
315
315
323
319
309
308
313
317
314
312
315
316
315
316
317
313
313
316
317
313
313
316
315
312
313
318
323
311
305
310
313
311
313
315
314
312
315
318
316
313
317
319
317
314
315
317
315
316
318
318
316
315
321
327
314
308
315
319
316
316
320
320
318
317
320
324
323
325
330
331
330
336
338
337
333
335
343
319
316
317
316
314
315
317
316
316
319
319
316
316
318
329
346
367
384
375
354
337
315
274
272
303
324
324
320
322
326
326
323
326
328
328
325
327
330
331
328
329
333
334
338
331
328
331
334
338
340
340
339
343
347
345
348
352
354
353
355
362
366
363
365
372
369
369
372
369
366
364
349
335
328
324
322
318
310
310
310
308
305
305
306
303
301
303
305
304
303
304
306
303
304
312
312
300
299
306
308
305
306
309
310
307
307
311
309
307
307
310
310
306
306
310
308
306
308
311
315
306
301
305
306
306
308
309
307
309
311
308
306
310
311
307
307
309
311
309
308
312
312
310
309
312
314
310
311
314
313
310
313
322
313
304
308
314
314
310
312
315
315
313
315
316
314
314
319
324
324
323
326
332
332
331
333
333
329
327
326
324
316
312
316
315
312
312
315
315
311
313
315
315
331
355
378
379
360
339
315
282
269
297
316
319
320
322
320
318
321
323
322
321
324
325
323
323
326
327
325
325
329
330
329
330
333
333
331
334
338
339
338
340
344
345
345
350
355
355
356
361
365
366
366
369
370
367
365
364
361
351
342
336
329
322
317
311
305
303
306
304
301
301
303
304
301
302
305
304
302
305
307
305
304
305
307
306
305
308
311
308
307
309
310
307
307
310
311
308
307
311
311
308
308
310
311
310
309
312
311
308
309
312
310
308
309
311
309
307
309
312
312
310
311
314
312
310
312
315
312
314
315
313
312
314
315
313
314
317
318
316
314
318
318
315
316
319
319
316
317
320
320
317
318
321
320
318
319
322
320
319
320
323
320
319
321
323
322
320
322
324
322
320
323
327
328
330
333
336
335
333
339
344
339
336
337
334
324
320
322
323
320
318
320
318
319
321
319
321
334
356
385
398
386
366
340
303
286
306
319
324
326
326
323
323
327
329
326
326
328
329
326
325
330
331
329
332
334
335
332
333
337
338
337
338
341
341
340
343
348
349
347
351
356
359
358
362
367
367
366
371
374
372
369
372
370
362
353
341
331
324
322
318
312
309
310
309
306
305
308
308
306
306
308
308
307
308
311
309
306
308
311
309
307
311
312
309
308
311
314
311
309
312
313
311
310
313
314
311
311
314
314
312
312
314
314
311
311
314
314
311
311
315
314
312
313
316
315
313
313
315
314
314
316
314
313
315
318
315
314
316
319
316
314
317
318
316
315
318
318
316
316
318
319
316
317
319
319
317
318
322
321
317
318
321
321
319
319
322
319
317
319
322
320
319
320
323
322
320
322
323
322
320
322
323
321
320
324
325
321
321
324
325
325
330
337
340
339
340
342
340
340
340
337
329
323
322
321
318
320
323
321
318
320
324
320
318
325
337
353
382
403
392
365
339
308
288
302
320
329
329
325
325
327
328
326
326
329
328
325
327
332
331
328
330
333
333
332
334
338
337
335
338
341
341
339
344
347
346
347
355
354
357
363
366
365
367
372
374
372
373
376
375
369
363
359
352
341
334
329
323
317
314
314
310
306
307
309
307
304
306
308
306
304
306
308
306
305
307
310
308
307
309
310
308
308
311
312
309
308
312
313
310
310
312
313
310
311
313
313
310
311
313
313
311
314
313
311
313
316
314
311
313
316
315
313
314
317
315
314
316
317
315
313
317
319
315
315
318
318
315
315
318
318
316
316
318
319
316
318
320
319
316
318
321
319
317
319
321
320
318
319
321
320
318
322
323
321
319
321
322
320
319
321
323
320
320
323
321
320
324
324
322
323
329
333
335
337
340
339
337
340
344
342
336
335
330
322
318
319
322
322
318
321
323
321
318
320
322
323
334
359
390
402
384
360
334
298
279
304
324
325
325
327
328
326
326
329
330
327
328
331
331
329
331
333
334
333
335
338
337
335
341
341
341
344
347
346
346
350
354
354
356
361
365
364
366
372
375
373
374
378
379
376
375
374
369
358
351
345
336
327
325
323
318
313
312
314
312
309
310
312
311
309
311
313
311
311
314
314
311
311
315
316
313
313
320
326
312
307
314
317
315
314
318
318
316
320
318
315
316
320
319
317
318
320
319
316
318
321
319
318
319
320
318
316
318
320
319
317
320
322
319
318
321
321
318
320
328
326
313
314
320
322
318
319
322
321
318
320
323
322
320
321
323
322
319
322
325
325
327
333
339
338
332
335
339
339
336
336
321
318
320
321
318
317
320
320
316
317
320
320
319
331
358
382
385
367
349
326
293
271
290
317
324
323
324
324
325
326
328
326
324
327
330
328
326
330
331
329
329
333
335
332
332
336
337
336
337
342
343
341
343
348
349
349
352
357
359
359
363
368
368
367
374
371
370
368
365
355
346
340
334
324
317
314
311
307
304
304
304
301
300
303
303
300
300
304
304
302
303
306
306
303
304
308
307
304
306
309
308
306
306
309
308
306
307
310
307
305
306
307
306
306
308
309
306
306
308
309
307
306
308
308
306
305
309
309
307
309
309
308
308
311
310
308
310
312
312
309
311
314
312
310
312
314
312
310
311
314
311
309
313
315
312
312
314
316
312
312
315
315
313
314
317
317
314
316
318
317
315
318
324
326
327
332
334
330
330
335
337
333
328
323
318
314
313
315
316
314
313
315
315
313
317
327
343
368
393
384
354
330
305
274
282
309
321
321
318
319
321
320
317
319
323
322
320
322
325
324
322
325
328
328
325
329
333
331
330
333
336
334
333
338
340
340
341
345
349
348
351
356
360
359
361
365
367
366
366
370
368
362
358
354
345
334
324
318
311
308
309
307
304
305
307
304
302
304
307
305
303
304
306
305
304
305
307
305
305
308
310
307
307
310
310
308
309
311
311
309
309
312
311
309
310
313
313
310
310
313
313
311
311
314
312
310
312
314
313
312
314
315
313
313
316
316
314
313
315
317
313
316
317
316
316
318
318
315
317
319
319
316
318
320
318
317
319
322
318
316
319
323
320
318
320
322
319
317
320
322
320
319
321
323
320
320
322
323
320
320
323
323
321
321
323
323
320
320
326
329
326
326
330
335
336
336
338
340
338
340
339
332
325
322
318
318
321
323
320
318
320
323
321
320
327
340
362
391
402
382
353
326
294
284
307
323
329
328
325
324
328
327
325
326
329
329
326
329
332
331
330
332
336
334
334
337
339
337
337
340
343
341
342
346
349
348
349
353
356
357
359
364
367
366
369
373
375
372
374
372
367
361
357
348
338
332
328
321
316
314
314
310
307
309
310
307
306
308
310
308
307
309
310
308
307
309
311
308
308
311
312
309
309
311
312
309
309
313
312
309
310
313
313
310
311
313
313
310
312
314
313
311
312
314
312
310
313
315
313
312
314
316
311
314
315
313
312
316
318
314
314
316
316
314
313
316
317
315
315
317
318
316
317
320
318
316
318
321
320
317
319
322
321
319
322
324
321
320
322
324
322
320
323
324
322
321
323
324
320
321
324
323
322
326
333
337
336
338
341
341
340
341
342
337
333
330
319
316
318
321
320
317
318
321
319
317
319
327
338
360
393
404
381
352
328
292
278
303
323
327
323
322
326
325
323
325
327
328
325
326
328
328
327
329
332
331
330
332
335
335
333
336
340
340
339
344
347
346
346
349
353
354
355
360
363
364
367
371
373
372
376
375
370
365
362
355
343
336
333
325
317
315
314
311
308
309
309
307
304
306
308
307
305
308
309
307
307
308
312
309
308
311
313
311
310
312
313
310
311
314
314
310
311
314
314
311
312
315
314
311
313
315
314
311
313
314
313
311
314
316
315
314
316
318
313
316
320
317
315
317
319
316
315
319
320
318
317
320
321
318
318
321
322
320
319
322
321
320
321
324
323
321
322
325
324
322
322
325
323
321
323
326
326
328
334
338
339
336
335
340
341
341
341
338
328
321
322
323
319
318
321
322
319
319
323
323
319
326
375
396
397
375
346
316
282
284
313
327
330
333
330
328
332
334
332
332
334
337
334
333
336
338
334
334
338
341
339
339
343
344
341
342
347
349
347
349
353
355
355
357
361
363
363
366
372
372
373
376
379
377
375
375
373
366
357
350
343
332
324
321
319
313
310
309
305
304
306
306
303
303
306
306
305
305
307
307
305
306
309
309
306
307
310
310
308
309
312
311
309
309
312
308
306
308
310
307
306
308
309
307
305
308
309
307
306
310
309
306
307
310
309
307
307
310
310
308
308
311
310
307
309
312
311
309
309
312
309
311
313
311
309
312
313
312
311
313
315
313
311
314
315
312
312
315
316
312
312
314
315
314
313
316
315
313
315
320
324
324
329
333
329
327
331
338
335
330
327
322
314
309
311
314
312
311
313
315
312
312
313
317
326
347
379
396
376
347
324
292
265
285
320
317
318
319
319
317
320
322
322
320
322
326
325
324
326
329
328
325
328
331
331
330
333
335
334
334
338
340
340
341
347
351
351
350
355
359
359
364
369
369
368
369
372
371
367
363
360
351
340
333
328
319
313
311
310
306
303
304
306
302
300
302
305
302
303
306
303
303
305
306
305
306
309
309
307
306
310
309
306
307
311
311
310
308
309
308
307
309
312
311
308
309
312
310
308
309
313
310
308
309
312
309
309
311
312
309
307
311
313
310
309
312
313
310
310
313
314
311
310
314
314
311
313
315
314
313
314
316
314
317
320
321
311
313
319
318
316
317
319
317
316
319
320
317
316
320
321
319
317
320
322
318
317
322
323
319
319
322
322
318
320
323
323
321
324
331
334
334
336
340
339
338
340
341
337
333
330
324
318
317
319
321
319
317
320
322
319
317
319
326
336
360
407
385
357
333
297
280
304
325
328
325
326
328
328
325
326
329
329
326
327
331
332
330
331
336
335
332
335
338
336
336
339
342
340
340
344
347
346
347
353
355
355
358
363
365
365
368
373
375
373
376
378
378
373
370
367
358
348
341
336
329
322
318
317
313
312
313
310
309
310
311
310
309
312
313
310
310
313
313
310
312
315
315
312
312
316
316
312
313
316
316
313
313
317
317
315
316
318
317
314
316
318
316
314
316
318
317
315
316
317
315
314
317
319
315
315
319
320
317
315
319
319
315
316
318
319
317
316
320
318
318
321
320
318
320
321
320
318
320
322
321
320
322
324
322
319
321
323
322
320
322
324
322
320
322
324
322
321
324
324
323
322
325
325
323
323
326
326
323
325
330
333
335
340
345
342
337
340
345
343
337
335
330
322
319
320
323
321
319
322
323
320
320
324
327
340
369
401
401
378
354
326
286
280
311
326
326
326
327
326
324
326
328
328
325
327
330
329
328
329
332
332
332
332
335
333
333
338
342
339
340
343
345
344
345
350
352
352
353
358
362
362
365
371
373
371
372
376
376
373
371
369
363
352
344
339
331
319
318
312
308
310
311
307
304
306
308
307
306
307
308
306
305
309
310
308
307
309
311
309
310
312
312
309
310
314
313
309
310
314
313
310
311
314
313
311
312
314
312
310
313
314
313
310
311
313
311
311
313
313
311
312
314
314
312
312
315
315
313
313
316
313
313
317
317
314
315
318
317
315
316
316
315
318
318
320
318
316
319
321
320
319
320
322
319
318
321
323
320
319
322
322
321
320
323
324
321
321
324
324
322
322
323
323
322
322
324
325
323
324
328
332
334
338
344
341
337
341
346
343
337
335
331
323
319
323
321
319
321
323
321
321
324
323
324
338
365
396
403
383
356
330
293
279
306
324
326
327
329
328
325
328
331
329
328
330
333
332
331
334
337
336
335
338
340
339
338
342
344
342
343
347
349
347
349
353
355
355
359
364
366
367
369
375
377
375
376
380
380
376
375
368
359
351
346
337
329
324
322
317
312
313
314
311
308
311
313
311
309
314
322
309
304
309
312
313
310
313
315
313
313
317
318
314
315
318
317
313
315
318
318
315
316
319
318
315
316
321
319
317
321
328
315
308
314
319
318
316
318
320
317
318
321
319
317
321
322
318
319
323
321
317
318
321
322
320
323
331
321
312
315
321
320
318
320
322
321
320
323
324
321
319
321
323
323
324
330
334
336
345
337
329
330
335
341
340
333
326
324
323
319
318
322
322
319
319
322
323
321
319
325
339
365
395
397
365
340
291
273
294
321
328
327
326
329
330
326
326
329
331
330
329
333
332
331
332
335
337
334
337
344
334
329
336
342
343
341
343
348
349
349
352
357
358
358
363
368
368
368
372
376
375
377
384
374
364
361
359
351
339
331
327
322
316
312
311
311
308
305
306
306
304
308
308
304
308
316
306
298
303
309
307
306
307
311
309
307
310
312
310
309
311
312
310
307
310
312
309
307
309
310
307
308
312
319
307
301
305
309
308
308
312
310
308
309
312
311
308
309
311
309
308
311
313
311
309
311
312
309
310
312
313
312
310
312
317
305
305
311
310
312
314
315
312
310
314
315
312
313
316
317
318
321
327
331
331
328
330
329
328
329
328
325
314
312
313
311
310
312
314
311
310
312
315
312
315
332
360
385
378
356
337
314
283
267
290
313
318
320
320
317
318
321
321
319
320
322
322
321
326
326
323
325
329
326
325
328
331
330
329
333
335
334
335
340
344
342
344
349
353
352
354
361
364
363
364
368
368
366
365
365
361
350
343
338
331
327
318
308
304
301
304
304
302
300
302
304
302
301
302
303
301
300
303
306
304
303
305
307
305
304
308
309
307
309
308
307
308
311
310
307
309
312
310
308
309
311
310
308
311
313
312
310
310
313
311
309
312
315
311
311
312
314
313
311
313
314
311
312
314
314
312
312
316
317
315
314
318
317
315
315
318
318
316
316
320
319
319
318
319
318
317
319
322
320
318
320
321
319
321
324
322
320
323
323
320
320
323
324
322
321
323
324
322
322
324
325
324
328
334
336
336
336
336
337
339
339
339
335
327
321
321
319
316
318
321
319
317
319
319
315
317
329
350
375
400
396
373
347
316
284
295
315
323
326
326
322
322
326
326
323
329
328
325
327
329
330
328
330
333
332
329
332
335
336
336
340
342
339
340
344
347
346
349
354
357
356
359
364
367
365
368
372
373
369
370
373
370
363
357
352
343
334
328
324
318
313
311
311
308
306
306
310
307
305
306
307
305
304
306
309
307
306
310
311
308
310
310
309
309
312
310
308
309
311
312
310
310
313
312
309
310
313
311
310
312
315
313
310
312
314
313
312
314
316
313
313
315
317
314
313
315
317
314
314
316
316
315
315
318
317
315
315
319
320
317
317
319
319
317
318
321
319
317
318
323
321
319
321
321
319
321
323
320
319
321
323
321
320
321
323
321
320
322
324
321
321
324
324
321
322
325
325
321
322
326
326
321
321
325
324
321
322
325
326
327
332
338
339
340
341
341
341
341
342
340
336
329
324
322
318
316
319
321
318
318
322
321
317
318
325
336
354
405
392
365
338
304
283
300
319
327
326
323
323
326
325
323
324
327
325
323
327
330
328
327
329
332
330
331
334
337
335
334
338
340
339
340
344
345
344
349
355
355
354
357
362
365
365
367
372
373
372
374
376
373
368
365
360
350
339
333
328
320
315
314
313
306
308
307
305
303
306
307
304
304
307
307
305
305
308
308
306
307
310
310
307
308
311
310
308
310
312
311
309
311
313
310
310
311
312
310
309
311
313
311
309
312
313
311
310
313
313
311
311
313
315
313
312
316
315
313
313
317
317
313
314
318
316
313
315
318
316
318
320
319
317
318
321
318
317
320
320
319
317
320
322
320
320
322
323
321
320
322
323
320
321
325
326
324
322
324
324
321
322
327
326
323
324
327
326
322
324
327
326
325
327
331
330
333
345
351
339
333
336
342
343
341
339
338
329
322
322
323
322
325
325
322
322
325
325
321
326
342
365
392
405
391
364
335
305
295
310
318
324
329
328
326
329
331
330
329
331
334
331
331
334
336
334
334
339
340
338
337
341
344
342
342
345
347
346
348
351
351
350
354
361
362
362
369
379
371
366
371
378
379
376
378
380
368
362
356
345
335
332
327
321
317
318
317
312
311
313
313
309
311
313
313
310
310
313
313
311
312
316
318
318
308
310
312
311
314
316
315
313
314
317
315
313
316
318
315
315
317
319
315
314
317
318
316
315
319
319
316
315
319
319
316
315
318
318
316
316
317
315
317
319
319
317
317
319
318
316
317
320
317
314
318
321
318
315
317
318
315
316
319
320
316
315
319
319
316
314
317
319
318
318
322
324
325
333
337
325
320
327
334
336
331
328
322
316
312
313
318
314
312
313
316
315
315
316
317
317
330
357
385
393
348
322
289
266
292
326
320
313
318
321
320
322
324
324
322
323
327
327
324
326
328
327
328
330
332
330
329
333
336
335
334
337
340
340
342
345
349
348
349
354
359
359
362
367
369
368
369
373
373
369
367
366
359
348
340
335
326
317
313
312
307
301
302
303
300
301
303
300
298
300
302
301
300
304
305
303
301
305
306
304
304
308
309
306
306
309
309
306
307
308
308
306
307
309
307
304
305
309
308
306
307
310
309
306
308
311
308
307
309
312
311
307
309
312
310
311
312
313
311
310
312
314
312
312
314
316
312
311
316
313
314
318
319
315
316
318
318
315
316
320
319
317
318
321
318
316
320
322
319
319
320
321
319
318
322
323
321
320
323
323
321
322
324
323
321
320
324
324
322
322
325
325
324
325
330
332
334
340
345
342
337
340
346
342
336
336
332
323
319
321
322
321
322
323
321
320
323
325
329
344
374
404
401
379
354
326
287
289
318
329
327
327
329
328
326
327
330
329
328
329
331
330
329
331
335
332
331
334
336
335
334
338
341
340
339
344
346
343
345
350
353
353
356
361
363
363
366
371
373
372
372
377
377
375
374
372
355
348
342
332
324
321
320
315
311
311
311
308
305
308
310
308
307
308
308
305
307
311
310
308
307
310
310
308
309
312
312
309
309
313
311
309
311
314
313
309
310
313
312
309
310
313
312
310
311
313
312
310
312
315
313
312
314
316
314
312
313
316
313
313
315
312
312
315
316
314
315
318
317
314
316
318
317
316
318
319
318
318
319
320
318
317
319
322
319
318
319
319
316
316
320
322
319
319
321
322
319
320
322
321
318
318
320
320
319
318
322
322
319
320
322
323
322
326
334
338
340
339
339
338
338
339
338
334
320
320
317
315
317
320
319
317
320
320
317
317
327
342
363
394
402
382
352
323
288
284
308
323
328
327
323
325
328
327
323
325
328
327
326
327
330
328
328
330
332
331
331
334
336
335
334
337
341
340
342
347
349
347
347
352
355
355
358
364
368
366
368
374
373
374
376
374
367
362
357
345
335
331
327
320
313
312
312
309
306
306
307
304
304
307
308
306
303
306
307
307
307
309
310
308
307
310
311
309
310
312
312
308
309
314
314
312
311
314
312
310
312
315
313
312
322
315
304
304
309
314
312
311
313
315
312
313
317
313
313
316
317
315
314
318
318
315
315
319
317
315
315
318
319
317
319
320
322
326
320
315
314
315
319
322
320
318
320
322
320
319
322
323
322
322
323
325
323
323
326
329
332
323
324
330
334
339
340
338
337
341
347
344
338
334
329
325
324
325
326
325
324
326
325
323
326
339
347
361
393
405
386
357
331
297
280
304
329
333
330
330
335
335
331
331
334
336
342
333
329
332
334
336
341
340
338
340
344
343
341
344
348
348
347
350
354
354
352
357
364
368
359
359
367
370
373
377
380
378
379
382
381
374
371
369
350
342
342
336
316
312
315
314
310
310
313
311
308
309
312
310
308
310
314
310
308
316
321
309
303
308
314
313
312
315
315
313
313
316
317
315
313
315
317
314
314
322
321
307
306
312
315
313
313
315
314
312
313
316
315
312
315
317
315
314
316
318
314
315
313
308
310
317
318
315
316
319
318
316
317
318
318
316
317
319
319
323
320
313
313
315
316
319
320
321
326
333
335
333
331
333
333
334
335
340
328
312
310
314
314
314
316
319
316
314
316
319
316
316
332
355
378
386
377
357
323
293
272
285
312
323
324
322
322
325
325
324
326
328
327
326
331
337
324
320
326
332
331
330
335
337
336
336
339
342
342
342
345
347
348
349
356
362
352
353
361
366
367
368
372
373
370
371
372
366
357
352
344
335
327
328
321
306
304
307
309
306
305
307
308
305
304
306
308
306
306
309
308
309
318
308
301
305
312
312
310
310
313
312
309
310
314
313
310
311
314
312
310
311
316
320
310
305
311
311
309
312
314
311
310
314
316
312
312
314
315
313
312
315
315
312
315
321
310
305
310
316
316
313
313
317
316
313
314
317
317
315
316
319
317
315
325
325
325
332
334
330
329
333
335
332
333
330
314
307
309
314
315
312
312
315
315
314
315
317
320
334
357
381
381
359
338
319
285
266
292
319
321
317
319
322
320
318
320
323
321
320
323
326
323
322
325
326
325
325
330
330
328
328
332
333
331
333
338
340
342
351
350
341
345
354
358
357
362
367
367
365
367
368
366
362
361
357
346
334
328
323
315
309
309
310
306
304
306
307
304
304
306
306
304
303
306
306
304
305
309
310
306
307
311
310
308
309
312
311
308
309
313
311
309
310
312
310
310
311
313
310
309
311
311
309
312
314
311
309
314
315
312
310
315
315
313
313
315
316
312
313
317
315
313
314
317
316
313
314
317
317
314
315
318
316
314
316
318
316
317
319
321
319
317
320
320
317
317
320
322
318
318
322
323
320
320
323
323
320
320
324
323
321
322
326
325
322
326
325
322
324
327
328
329
335
342
342
338
338
342
341
339
338
337
328
321
321
321
318
318
321
322
320
319
321
320
320
329
349
376
399
396
379
355
321
288
297
317
324
326
327
325
322
324
328
326
324
326
330
327
327
328
329
328
328
333
335
331
332
336
337
336
339
342
340
342
345
346
345
349
356
357
357
359
366
367
367
370
373
372
371
373
374
368
361
355
349
339
330
327
323
317
313
314
313
309
308
309
311
309
308
310
310
307
307
311
311
308
308
311
311
308
309
312
311
310
311
314
312
310
311
315
312
309
311
311
310
313
316
314
313
316
317
314
313
314
316
314
313
316
317
315
315
319
319
315
314
317
317
315
315
318
317
315
316
319
316
314
315
319
318
316
318
319
318
316
319
320
318
317
318
321
319
318
319
320
318
318
321
321
319
320
323
322
319
320
322
322
318
323
323
320
321
325
324
322
321
325
324
321
322
325
325
328
335
340
340
339
340
341
341
339
339
337
332
324
321
320
317
317
320
320
318
317
321
320
317
319
327
339
361
392
403
385
358
332
297
287
308
324
328
326
323
324
327
326
326
328
329
326
326
331
332
328
331
333
331
332
336
337
334
336
341
341
340
342
345
346
345
348
353
356
356
359
363
364
366
368
372
370
371
375
376
372
367
364
360
349
339
333
327
318
314
313
311
306
305
307
308
305
304
306
305
304
304
307
306
304
306
309
309
306
307
309
308
306
309
310
308
309
311
308
307
310
311
310
308
310
312
309
307
310
312
309
308
311
312
309
308
311
312
310
309
311
311
309
310
314
313
310
310
315
314
311
313
316
314
313
313
315
314
313
315
317
315
314
316
318
315
314
315
318
315
315
318
319
317
316
318
319
316
318
317
316
316
320
319
317
317
320
320
318
319
321
320
319
320
323
321
319
320
323
321
319
322
328
330
333
338
343
338
335
339
342
338
333
333
326
318
316
318
320
318
318
322
321
318
318
320
320
322
333
358
388
403
389
365
338
300
280
302
321
324
326
326
322
325
328
325
325
328
330
328
327
330
331
330
330
333
335
334
334
338
339
338
340
344
343
342
346
350
350
351
354
359
360
360
365
370
370
370
373
376
376
375
377
375
367
358
354
347
337
330
326
321
314
310
311
311
308
308
309
309
307
307
309
309
308
308
311
309
311
313
312
311
313
315
313
313
314
317
315
313
315
317
314
313
316
317
316
314
316
317
316
315
318
318
315
315
319
318
314
315
320
319
316
316
320
319
317
318
321
320
318
320
322
322
321
321
322
319
319
321
323
322
320
323
325
322
321
323
325
323
325
325
323
322
325
326
324
324
326
327
325
325
327
327
325
325
329
328
326
327
330
329
326
328
331
330
328
332
339
342
344
347
348
344
344
349
349
343
337
333
331
333
322
318
321
322
324
327
325
322
323
326
331
347
373
402
403
382
356
331
294
282
309
331
330
332
334
332
331
334
336
337
341
333
330
330
332
336
337
336
336
340
342
340
340
344
346
343
345
352
351
349
351
357
359
358
362
366
370
377
376
371
372
375
378
381
380
376
375
370
360
352
345
339
329
322
322
319
314
311
313
313
315
313
305
305
305
308
311
310
310
314
312
311
312
314
315
314
314
317
315
314
315
317
317
316
321
315
308
309
314
315
313
312
313
317
314
313
319
320
315
312
315
318
315
315
325
319
307
309
317
318
316
316
318
317
315
316
320
319
315
316
320
319
316
318
319
318
319
326
317
310
321
327
325
328
335
337
331
330
335
337
333
330
328
322
316
316
323
321
308
308
314
316
314
316
318
319
329
354
380
382
361
343
325
295
274
292
312
316
316
321
325
323
322
325
328
325
324
326
327
326
327
331
332
329
330
340
334
325
328
336
338
335
336
342
342
345
349
352
356
352
353
355
357
365
368
368
368
372
374
370
366
363
358
347
338
333
326
321
320
308
303
302
303
305
305
303
302
304
304
301
302
304
305
303
304
308
307
305
305
308
308
309
313
305
301
303
307
309
308
306
308
310
308
307
310
311
307
306
310
307
307
310
310
308
308
311
311
309
314
316
305
303
308
312
310
308
311
313
311
309
311
313
311
308
309
312
311
311
314
315
314
316
319
320
320
319
321
323
321
322
327
328
323
319
315
313
309
309
312
312
310
310
314
312
310
311
317
322
316
325
352
373
352
334
310
277
268
295
316
317
319
321
319
320
322
324
322
321
324
324
322
323
327
328
325
326
330
329
327
327
331
331
330
333
337
337
336
339
343
343
345
349
351
350
352
359
363
363
362
365
368
366
364
363
359
350
340
334
328
318
313
312
310
305
303
305
301
301
303
302
299
299
303
303
301
302
305
304
302
304
308
305
304
306
309
306
304
307
310
307
306
308
310
307
305
309
310
306
307
310
310
307
306
309
309
308
307
311
312
309
310
312
312
310
312
315
314
311
312
315
314
312
314
317
315
314
317
319
316
315
319
316
316
319
319
318
318
320
322
318
317
321
322
319
319
322
322
320
321
323
322
320
321
326
328
325
325
330
330
327
328
331
332
334
336
335
329
321
320
319
318
317
320
322
320
319
322
323
320
317
321
329
339
361
391
395
375
354
332
296
286
309
325
327
325
327
325
323
324
328
326
325
328
331
328
326
329
332
331
329
332
335
334
334
337
339
338
337
340
343
343
344
348
350
349
352
357
360
361
362
367
369
368
369
372
371
367
364
362
354
345
338
333
326
318
316
316
312
309
310
311
308
306
309
311
309
307
309
308
308
311
311
307
308
311
312
309
311
313
313
310
311
313
311
310
312
315
314
312
313
315
313
312
313
316
313
312
314
316
314
313
315
318
315
314
317
318
315
315
317
318
315
315
317
317
315
316
320
319
316
318
320
319
317
318
321
320
318
319
321
321
319
323
320
318
321
323
320
319
322
324
321
320
323
325
322
322
325
325
321
321
324
324
322
322
324
324
322
322
325
325
322
323
327
326
323
323
327
326
324
327
331
329
325
329
335
333
331
334
337
339
337
335
332
324
321
322
323
320
320
324
324
321
320
322
323
323
334
349
374
400
396
372
345
317
288
297
318
327
330
328
326
327
329
327
325
327
330
330
328
330
332
330
330
332
334
331
331
336
338
334
334
339
341
340
340
344
345
345
346
351
352
351
356
362
364
363
367
371
370
369
372
375
371
364
359
354
346
337
331
319
313
313
311
307
304
306
307
303
303
305
307
303
302
306
306
303
304
307
308
305
305
308
306
304
305
309
309
307
307
309
309
306
309
311
308
306
308
311
310
309
310
311
308
309
312
311
309
309
312
314
312
312
314
315
312
312
315
316
312
313
316
317
314
317
316
313
315
318
316
314
317
320
318
316
318
320
318
318
320
321
317
316
318
321
320
319
320
322
320
319
322
322
319
319
321
323
321
322
324
324
321
323
326
326
325
329
331
330
327
332
337
334
332
336
342
341
336
332
330
323
321
323
323
322
321
323
324
321
324
325
323
330
349
374
400
398
377
352
321
285
291
315
325
328
331
329
327
328
330
329
328
330
331
329
329
331
333
332
331
334
336
334
334
337
341
339
338
341
344
343
343
348
350
349
351
357
359
359
362
368
371
369
372
376
376
373
373
375
370
363
357
341
332
328
324
316
311
311
311
307
305
308
310
307
305
308
308
305
305
308
309
305
305
308
310
308
307
310
309
308
308
312
311
308
309
312
312
310
310
312
311
309
311
313
311
308
310
313
312
311
313
315
311
310
313
315
312
311
314
314
311
312
316
316
313
317
317
314
314
316
315
313
314
317
316
314
317
319
317
316
318
321
319
316
319
321
317
316
319
320
318
318
321
323
320
319
322
323
320
320
322
325
325
325
327
329
331
333
335
335
335
337
339
333
327
323
322
320
318
320
322
321
319
322
323
321
319
320
328
363
396
406
380
350
327
293
279
305
325
329
327
325
328
329
327
329
333
333
330
331
334
333
330
333
336
335
334
336
340
338
336
340
343
343
342
346
349
348
348
353
356
356
359
364
367
367
369
375
378
375
376
378
379
376
372
369
361
351
342
338
332
324
321
317
312
311
311
310
308
311
314
311
310
311
313
312
310
312
314
312
311
314
318
314
313
317
319
315
315
318
317
315
315
317
317
315
316
319
319
315
314
318
318
315
316
319
317
315
317
319
317
314
317
320
318
317
318
320
318
316
319
320
317
317
319
320
317
320
320
318
319
321
321
319
319
321
321
319
320
322
321
318
319
323
325
324
327
329
327
328
332
333
332
331
338
342
337
329
326
323
319
317
319
321
319
318
321
323
320
320
323
323
327
348
379
399
384
360
336
307
272
277
310
326
324
326
328
326
325
327
331
327
330
332
330
328
330
334
332
331
333
335
334
333
337
341
339
339
343
344
343
345
349
352
352
354
359
361
360
363
367
370
369
372
375
374
370
367
365
355
345
338
332
324
315
312
310
306
302
303
304
301
299
302
302
300
300
303
304
301
302
305
307
302
302
305
303
305
308
306
304
304
308
308
304
305
308
306
304
305
308
307
305
308
309
306
304
305
308
306
305
309
309
307
306
309
310
308
308
311
312
308
308
311
311
309
310
311
311
309
309
311
311
309
310
312
312
309
310
313
311
311
313
317
315
313
315
318
318
318
321
323
325
326
328
329
331
334
329
321
315
316
314
311
312
314
314
312
313
315
316
314
314
321
336
359
387
397
375
344
319
285
271
296
319
324
323
321
323
325
323
321
323
324
321
322
326
329
329
326
330
331
328
330
333
335
333
334
338
339
337
338
342
343
347
352
353
352
357
362
363
363
366
370
371
370
373
374
370
364
360
353
343
334
329
323
315
310
309
309
306
304
305
305
303
302
303
303
301
302
306
306
304
303
307
308
306
308
309
308
306
307
310
309
308
309
310
309
307
310
312
309
306
309
313
311
309
312
309
307
309
310
308
309
312
314
311
311
314
315
311
311
314
313
312
311
315
315
313
314
316
314
312
316
317
315
313
314
316
314
315
318
320
317
316
319
320
318
317
318
318
316
322
328
327
322
326
331
330
328
331
337
336
331
328
327
321
315
316
319
318
318
320
318
315
319
323
323
332
355
388
405
388
363
336
299
273
296
321
324
323
328
328
324
324
328
330
327
326
331
332
329
329
332
331
329
331
338
338
336
337
340
340
339
341
345
344
343
347
351
351
351
356
359
359
361
367
370
369
369
372
374
371
370
371
353
345
340
333
323
318
318
314
308
306
309
307
305
305
307
306
303
306
309
307
304
307
310
307
306
310
313
310
308
311
312
308
306
309
311
310
309
311
312
309
309
312
311
309
308
311
311
309
309
313
312
309
312
314
312
309
312
316
313
311
313
314
313
313
317
314
312
316
317
314
314
317
319
316
314
317
319
317
317
319
319
317
316
319
320
317
317
321
321
318
319
323
322
323
325
327
326
326
332
334
332
333
338
342
335
328
327
325
320
317
320
323
321
320
322
322
320
321
323
324
330
350
379
405
398
371
345
315
287
318
329
328
328
329
327
326
330
334
332
329
331
333
331
332
336
336
335
336
338
340
338
341
343
345
342
344
348
350
348
349
353
355
357
361
366
367
367
369
375
376
375
378
382
382
384
381
367
357
350
345
341
332
325
322
320
316
312
315
315
311
309
311
312
310
313
313
310
311
314
317
317
323
316
311
309
312
318
317
315
316
319
318
317
317
320
318
314
316
319
317
316
318
320
317
316
318
320
318
317
321
327
319
308
313
319
316
317
320
320
318
320
322
322
320
321
324
322
319
319
322
321
319
320
324
325
323
324
315
318
326
331
329
327
331
337
334
330
335
342
340
334
332
329
323
321
325
330
319
313
317
320
320
320
324
325
323
332
355
379
392
380
362
338
308
279
287
316
330
334
338
324
321
327
332
332
329
332
335
332
332
336
338
336
337
339
340
339
339
343
342
350
346
340
339
343
352
353
352
355
360
361
360
364
370
370
370
373
378
377
374
374
376
367
348
342
339
331
324
320
317
311
309
309
311
308
308
310
308
306
307
315
313
302
302
306
310
309
310
313
313
310
310
313
311
311
314
316
312
309
316
321
309
304
309
313
310
312
314
313
313
313
314
311
311
313
314
312
310
313
315
320
316
309
308
308
311
315
315
313
315
322
321
318
320
322
321
319
321
326
328
327
326
322
313
310
313
314
312
310
315
321
309
305
310
314
312
310
319
338
360
375
368
347
325
304
276
272
297
320
319
319
320
322
322
320
321
323
323
327
326
319
318
322
326
328
327
326
328
331
330
329
331
335
334
336
340
343
341
342
347
350
350
351
355
360
359
361
367
369
365
364
364
359
350
342
334
327
319
315
311
307
305
304
304
302
299
300
304
305
294
294
298
297
302
304
302
303
305
307
304
303
307
308
305
303
306
306
304
306
309
308
306
306
310
308
305
306
308
306
306
308
309
306
305
308
311
308
307
309
310
308
308
310
310
307
309
313
313
308
308
311
313
311
311
313
312
310
312
316
315
311
313
316
315
312
316
315
314
316
318
317
317
321
322
319
318
323
325
324
324
328
333
332
329
327
321
315
314
317
318
315
317
318
318
315
316
320
317
315
325
343
364
387
393
377
353
324
288
280
303
318
324
325
323
322
324
326
325
323
327
330
327
325
330
331
328
327
330
332
330
334
336
333
336
340
340
338
342
346
346
345
348
354
355
355
359
362
363
365
368
373
372
369
369
369
364
356
353
345
334
326
322
319
313
309
308
308
305
306
309
308
306
307
309
308
305
307
311
311
307
308
311
310
308
309
312
309
308
313
315
312
310
311
314
310
315
316
313
311
313
315
313
313
315
316
312
312
315
318
316
313
317
317
314
315
317
317
315
316
319
319
316
316
319
317
316
317
320
318
317
319
321
319
317
320
322
319
318
322
323
321
320
323
324
322
320
323
323
322
322
325
325
321
322
324
324
323
324
325
324
325
328
327
324
324
326
325
324
325
327
325
323
326
328
325
324
328
329
326
324
327
328
327
331
335
337
335
337
342
341
337
340
345
344
338
333
332
327
322
320
324
324
322
323
324
323
320
321
323
327
338
361
397
410
392
369
343
306
286
308
326
328
327
328
327
326
327
328
327
328
331
331
329
329
332
333
330
332
335
335
334
335
340
339
337
339
344
344
345
348
352
352
352
356
361
361
362
367
370
370
370
374
377
374
373
374
368
358
351
347
340
331
324
322
319
313
310
312
310
305
306
310
309
307
308
312
307
309
311
309
308
310
312
311
309
313
315
312
309
311
313
311
311
315
315
311
312
314
314
314
314
315
315
310
310
315
315
312
313
316
315
312
315
317
316
314
316
320
318
314
316
320
317
314
316
319
317
315
317
320
317
316
322
328
320
309
313
319
318
318
321
320
319
322
322
320
320
323
322
319
320
326
324
320
321
324
322
321
323
328
333
337
331
333
336
334
338
342
340
337
338
333
325
320
322
322
318
319
321
324
322
322
323
323
321
333
354
370
390
390
374
347
317
284
290
317
326
328
330
329
327
329
332
332
330
331
330
332
335
337
335
334
341
342
331
332
338
342
340
341
344
345
343
347
352
354
352
353
359
360
360
364
371
372
372
375
378
378
378
384
380
363
355
353
349
339
329
324
322
318
314
313
312
308
307
310
311
308
307
310
310
308
308
312
318
317
306
306
310
311
314
313
310
313
316
313
313
314
317
314
310
312
315
314
312
313
315
312
312
313
313
311
312
314
314
312
312
317
322
312
304
307
312
310
312
314
313
312
312
315
315
312
313
315
315
312
315
318
316
313
316
318
314
314
315
318
316
314
315
315
313
313
318
316
321
318
313
316
320
327
331
329
326
329
334
335
333
333
327
317
314
317
315
312
312
317
315
310
312
316
314
310
320
342
365
384
380
359
334
308
275
272
299
317
320
319
316
317
322
324
320
318
322
324
323
322
325
324
322
323
326
328
327
328
332
333
331
334
336
335
339
343
343
342
345
350
353
355
361
363
361
362
366
369
369
368
370
367
360
354
349
340
329
321
318
315
307
303
306
304
301
300
302
301
300
302
305
301
298
301
305
305
304
305
309
306
304
306
309
306
304
308
311
310
309
311
311
308
307
311
309
309
312
312
309
309
310
310
308
308
312
311
309
309
310
310
310
312
315
313
310
312
315
312
310
312
314
313
312
313
314
316
316
316
316
314
313
316
317
315
315
319
320
317
317
319
318
315
319
323
321
317
317
321
321
319
320
324
322
319
322
323
320
318
325
324
320
322
324
322
322
324
324
322
322
323
325
322
323
331
335
336
339
341
341
338
342
346
343
336
333
330
325
318
317
322
323
321
322
323
320
318
321
327
334
347
379
407
398
373
350
319
285
294
321
330
327
325
326
328
326
325
329
329
326
327
329
330
328
332
332
331
334
337
337
334
337
341
340
339
342
345
346
346
349
353
352
352
357
363
362
363
368
371
372
372
375
377
374
371
370
365
354
347
345
336
325
319
318
316
310
309
310
312
307
306
309
309
307
308
309
309
306
308
312
311
309
310
313
311
309
312
310
309
314
315
312
309
311
314
312
311
314
315
312
310
314
314
310
310
313
313
311
311
315
314
310
311
313
312
310
313
316
313
311
313
316
313
311
313
315
313
313
318
319
314
313
318
320
316
314
317
318
316
316
320
320
316
317
321
321
316
317
320
320
318
322
321
320
321
323
321
319
321
323
320
317
320
324
321
319
322
326
323
322
324
328
329
333
339
344
339
336
339
342
339
336
335
331
321
317
320
318
316
319
323
321
317
318
320
320
326
343
369
397
399
381
357
327
286
286
311
321
324
328
326
323
323
327
328
326
329
330
327
327
330
330
328
330
335
336
334
335
338
340
339
342
345
346
344
346
350
351
349
353
358
359
360
365
371
371
370
374
377
375
375
376
373
366
358
353
346
335
328
324
321
313
310
311
311
308
307
311
309
305
307
310
309
306
306
308
308
307
310
310
307
310
313
310
309
312
314
311
310
313
313
310
311
314
315
311
310
312
314
311
310
313
313
312
312
315
314
313
313
316
314
311
313
316
315
313
314
316
315
313
315
317
315
313
315
317
315
312
315
319
318
315
317
318
316
316
318
318
315
315
318
319
316
319
318
314
315
319
320
318
319
320
319
318
320
323
321
318
319
321
320
319
321
324
321
319
321
323
323
325
334
340
340
337
337
339
339
338
338
335
326
319
318
317
314
315
319
319
317
317
320
318
316
325
347
374
399
395
372
341
309
279
290
314
321
324
327
323
325
327
325
324
327
329
325
326
330
332
329
330
335
335
332
333
338
338
336
338
342
344
343
345
349
348
348
352
358
359
358
363
368
369
369
373
377
376
375
376
377
372
365
361
355
343
334
331
326
319
314
315
314
310
308
310
310
308
308
311
312
309
310
312
309
311
316
316
313
314
318
315
313
314
317
315
312
315
317
315
318
322
313
310
311
314
317
314
314
317
317
316
314
318
318
316
316
319
319
317
318
320
320
318
319
320
320
318
320
322
320
318
321
331
322
311
315
321
321
319
322
324
321
320
323
324
322
322
325
323
322
325
324
320
323
330
332
331
337
341
338
341
345
339
336
333
331
327
321
319
321
324
321
320
321
323
323
322
323
330
344
368
394
395
370
346
324
293
284
297
320
328
327
328
330
330
328
330
333
334
332
332
334
335
332
334
338
338
335
337
341
339
341
345
344
342
345
351
351
351
354
356
356
358
364
367
367
369
374
376
375
374
377
378
374
370
367
359
347
337
333
326
318
314
314
312
307
306
308
307
306
314
308
299
298
304
307
306
303
305
309
308
306
308
309
306
306
311
313
309
307
310
311
307
306
310
308
307
310
310
306
305
311
312
309
309
311
310
307
308
310
309
307
309
312
309
307
309
312
309
307
309
311
308
307
310
310
309
310
313
314
311
310
313
313
311
310
313
314
311
311
314
312
312
312
315
314
311
313
318
318
319
324
330
332
329
329
332
332
330
329
318
311
313
313
312
311
313
314
312
310
314
315
317
331
359
384
383
359
336
312
277
264
293
316
317
318
321
320
318
320
323
322
320
322
325
324
322
325
329
326
324
328
331
330
329
332
335
333
333
337
339
338
339
344
347
346
347
353
356
356
359
363
364
366
369
369
366
366
364
359
350
343
337
328
319
315
313
307
303
303
304
302
300
302
303
302
300
302
304
303
302
304
305
303
304
307
307
304
304
307
308
306
307
309
308
306
308
310
309
306
307
310
309
306
307
310
309
308
309
311
310
308
309
312
311
309
313
311
311
313
314
311
310
314
315
311
312
315
315
313
313
316
315
312
313
317
317
314
315
317
316
313
316
318
316
315
317
319
316
316
318
320
318
318
322
325
323
321
326
329
327
328
330
335
334
332
330
326
320
316
318
320
318
317
321
321
318
320
324
323
329
346
370
396
399
378
349
320
285
286
312
324
328
329
327
326
329
330
328
327
330
332
330
329
333
335
333
334
336
336
334
336
339
338
338
338
343
344
343
344
350
350
348
352
357
358
358
362
367
368
367
371
373
373
373
374
373
368
362
358
351
339
331
327
316
312
313
312
307
305
308
308
305
306
309
308
306
308
312
310
308
310
312
311
309
311
313
310
307
310
314
312
310
312
315
312
310
313
315
311
310
315
315
311
312
315
315
312
311
314
315
311
312
316
315
313
313
317
315
313
313
317
317
313
314
318
316
315
319
317
315
318
319
316
315
319
322
319
318
321
321
317
317
322
323
319
319
322
322
320
320
323
323
319
321
324
326
326
326
329
329
328
332
334
333
335
340
343
336
328
325
324
320
318
322
323
321
320
322
322
322
321
322
329
341
366
401
408
381
352
327
290
307
327
329
326
326
329
327
325
326
330
329
326
329
333
331
329
332
334
333
332
336
338
336
335
338
341
339
340
344
346
345
345
350
355
355
355
360
363
362
364
370
373
370
372
375
373
370
368
366
357
346
340
335
325
319
317
314
310
306
306
308
306
303
306
306
304
307
309
307
306
309
309
308
308
312
312
308
308
313
313
309
310
312
311
308
309
314
313
310
310
314
313
311
313
315
313
311
314
316
314
311
313
316
314
313
316
317
314
314
317
318
315
317
319
319
317
316
320
319
317
317
318
319
318
319
321
320
318
323
321
319
321
325
322
319
322
326
327
326
328
328
327
327
332
335
333
335
341
341
333
326
325
324
320
320
324
325
322
321
324
325
323
324
326
329
340
365
396
406
384
361
342
295
269
297
328
332
328
331
334
332
331
335
337
335
333
336
339
336
336
338
339
339
342
344
340
343
345
346
346
348
352
352
351
353
357
358
358
360
368
369
368
373
384
379
367
370
377
377
375
371
367
357
350
344
339
329
322
321
321
316
311
312
313
310
309
312
312
309
309
314
315
311
310
314
314
311
313
317
318
321
313
310
311
312
313
311
312
315
316
316
313
314
317
316
313
316
318
316
313
316
317
314
314
316
317
315
315
319
326
316
309
312
316
314
314
317
317
314
315
318
317
315
320
324
323
320
324
328
327
325
328
333
335
332
330
326
319
316
317
318
316
315
318
320
317
315
318
319
318
324
342
366
384
376
354
331
308
279
273
300
321
326
324
322
325
328
327
326
327
329
328
326
329
333
330
328
332
335
334
333
335
338
335
336
339
341
339
340
344
346
345
346
352
354
355
358
363
364
364
366
370
370
368
369
370
364
356
351
343
333
324
320
317
304
305
305
302
300
301
302
298
297
300
302
300
300
302
304
301
302
305
304
301
303
306
305
302
303
305
305
302
303
306
304
303
305
306
305
303
305
307
304
302
304
306
304
303
305
307
304
303
305
307
305
304
307
308
306
307
309
309
307
307
310
310
307
308
311
308
309
311
310
309
310
313
311
309
310
313
311
309
311
314
312
311
315
319
317
315
317
321
320
320
325
328
327
329
329
324
316
313
315
315
312
313
316
315
313
314
317
314
311
312
323
337
357
388
395
372
343
319
284
274
300
320
324
321
319
322
325
321
324
326
324
325
328
330
327
327
331
333
331
331
335
336
334
335
339
341
339
341
345
346
344
347
352
352
352
356
362
363
363
366
370
369
369
371
372
366
361
359
352
341
334
329
324
317
312
311
309
305
304
307
306
304
304
307
307
305
307
310
308
306
307
310
307
309
312
311
309
311
313
312
310
311
313
312
310
313
314
312
312
313
315
312
312
314
314
312
312
316
315
313
312
315
314
311
313
315
316
313
315
317
317
314
315
318
317
314
316
317
316
314
318
320
317
315
317
319
318
317
320
321
317
318
320
321
318
318
322
319
320
322
323
320
320
324
323
320
321
324
324
320
322
325
324
323
325
331
329
326
329
332
331
330
333
335
337
338
337
333
324
320
320
322
320
320
323
324
321
320
323
324
320
321
331
346
369
400
406
382
352
322
288
288
313
325
330
328
324
326
328
327
327
330
329
328
330
333
331
331
334
336
334
333
337
338
338
338
343
345
342
343
349
351
350
352
356
359
359
362
367
368
368
371
375
375
374
377
378
373
367
364
359
348
338
332
327
320
315
315
313
308
307
309
309
306
306
308
309
306
307
309
310
308
308
311
308
309
313
312
309
310
314
312
310
310
312
311
309
310
313
312
309
310
312
310
310
312
315
312
311
312
313
310
310
313
315
310
310
313
313
311
311
315
314
311
311
314
316
312
312
315
314
312
313
316
316
314
316
319
316
315
315
317
315
313
315
319
316
314
319
316
314
317
317
317
316
319
321
318
316
319
320
317
317
319
318
316
318
320
319
316
318
322
321
318
321
328
330
332
336
335
333
334
339
340
335
328
324
320
316
315
317
319
319
318
319
320
318
315
322
333
352
382
407
396
365
336
306
278
292
317
327
326
323
326
325
324
325
327
326
324
326
330
328
328
330
331
329
329
332
335
334
334
338
341
339
339
342
343
344
346
351
353
352
354
360
362
362
365
371
371
370
371
374
371
366
362
358
352
340
333
328
320
313
311
311
307
304
304
305
303
300
303
304
302
304
306
303
303
307
308
305
307
310
309
308
308
311
310
308
309
311
310
309
310
311
310
308
309
313
311
310
311
313
313
317
318
308
304
307
313
315
310
308
313
315
312
313
315
317
314
314
317
318
317
316
319
319
318
323
324
313
311
316
320
319
318
318
322
319
318
325
323
320
322
326
324
321
323
325
323
322
324
325
323
323
327
328
329
337
332
330
334
336
338
340
340
343
345
340
329
324
325
324
322
322
327
325
322
325
327
325
323
336
347
362
390
403
386
355
326
295
283
303
325
332
332
329
330
334
334
333
332
334
334
335
343
334
327
330
336
338
337
339
343
343
341
344
348
348
347
350
353
354
354
361
364
370
364
361
367
372
374
379
381
378
379
382
378
372
365
362
355
341
333
331
325
319
316
317
316
318
307
303
306
307
308
311
310
309
311
313
311
311
314
316
315
314
317
314
314
320
323
310
306
312
315
313
312
316
316
313
312
316
316
312
312
315
316
314
314
318
315
313
314
316
316
313
314
324
321
310
309
314
315
313
315
317
317
316
317
319
316
315
318
318
316
315
317
318
315
315
318
320
315
317
323
326
326
331
336
333
330
339
340
324
320
317
311
310
313
316
314
311
312
314
313
313
314
317
325
348
377
387
365
341
319
289
263
280
312
323
325
314
313
316
317
319
322
322
321
322
326
325
323
325
329
329
326
328
332
333
331
333
336
335
336
339
343
343
342
346
350
350
351
355
359
363
369
369
367
368
370
370
365
361
358
350
340
336
323
310
305
306
307
304
299
299
300
298
297
299
302
300
298
300
303
301
300
303
304
303
302
305
307
304
304
306
308
305
302
306
306
304
304
308
308
305
305
309
307
304
305
309
308
305
306
308
308
306
308
308
307
309
311
309
307
309
311
308
307
310
312
311
309
311
312
310
310
312
314
312
312
315
314
312
312
315
314
311
312
315
315
313
313
316
314
313
314
319
317
314
315
318
318
317
322
327
328
329
330
330
331
334
336
334
327
320
315
316
312
311
315
315
312
314
315
313
316
328
346
371
395
390
365
336
306
276
287
310
319
322
321
318
320
323
321
320
321
324
322
320
323
326
325
324
327
329
328
327
330
332
330
329
335
336
335
337
342
342
340
343
348
351
352
355
360
361
360
365
369
370
367
368
370
367
360
355
349
329
326
320
313
308
308
307
304
301
304
305
304
302
304
305
303
302
306
307
304
305
308
308
306
307
310
308
305
308
311
309
307
309
312
311
309
310
313
310
308
310
312
311
308
311
313
312
312
314
314
310
309
312
315
312
312
315
315
313
313
316
317
313
313
316
314
315
318
316
314
314
318
317
316
316
320
319
317
318
320
319
317
318
320
318
316
320
322
319
318
320
321
319
319
322
323
320
320
323
324
322
321
323
323
322
323
325
324
321
324
326
325
323
325
331
333
336
340
346
342
338
341
347
343
337
337
332
323
322
323
321
320
323
323
319
320
324
325
329
346
377
406
401
378
354
321
284
290
317
327
325
324
325
324
324
326
329
328
325
327
329
327
326
329
333
330
329
333
335
333
333
337
339
337
338
342
345
343
344
349
352
351
353
359
361
362
365
371
371
369
373
378
374
372
371
364
354
348
341
332
324
321
319
312
309
311
310
306
306
307
309
306
304
307
308
306
306
309
310
307
307
310
311
308
309
312
312
309
310
313
313
309
311
314
313
311
312
314
312
310
314
315
314
312
314
316
314
312
315
317
315
315
317
316
314
314
318
315
316
319
319
315
317
320
320
316
318
321
321
318
320
323
322
319
321
323
322
321
322
324
322
321
323
325
322
320
323
327
324
323
325
326
323
323
326
328
324
324
328
328
324
324
327
327
324
326
333
336
338
343
346
344
340
341
347
345
338
335
330
324
323
325
322
320
323
324
322
320
322
323
330
346
374
401
400
377
351
323
286
283
313
329
327
327
332
331
328
329
331
331
329
330
333
333
330
332
336
334
332
336
339
338
337
340
342
341
341
345
348
348
348
352
356
353
355
361
365
366
368
372
374
372
373
377
377
374
372
366
356
348
342
334
325
322
320
315
311
311
313
309
306
307
309
308
307
309
310
307
308
311
311
308
307
312
313
311
310
312
313
311
310
313
313
310
310
312
312
309
309
311
312
309
309
314
312
308
310
313
311
310
311
314
312
311
311
313
311
310
314
312
311
311
313
312
311
314
313
310
310
313
314
311
312
315
314
311
312
315
315
312
313
315
314
312
313
317
315
313
315
318
317
317
323
327
330
328
328
332
333
333
333
330
321
314
315
316
311
310
313
313
311
311
314
315
311
314
327
349
374
392
380
351
292
268
281
307
318
321
319
316
319
321
320
318
321
323
321
321
324
325
323
323
326
328
326
327
331
332
330
332
335
336
335
338
342
343
342
345
351
352
353
356
363
364
364
368
372
372
370
372
372
367
359
353
346
334
325
321
318
311
307
307
306
302
301
303
301
300
303
303
300
301
305
306
303
304
306
305
303
305
309
308
305
306
310
309
307
308
310
308
306
308
311
309
307
309
310
307
308
311
311
308
308
310
311
309
308
311
312
309
310
313
313
310
311
314
315
311
311
314
314
311
313
317
316
312
313
317
316
313
317
316
314
315
318
316
316
317
318
316
316
317
317
316
314
317
317
316
316
320
319
317
317
320
320
318
318
321
319
316
319
322
320
317
317
322
321
318
321
323
324
326
333
339
339
335
335
338
338
337
336
334
323
317
318
318
315
316
319
321
317
315
318
317
329
350
378
404
401
379
348
314
280
293
315
321
323
325
323
321
324
326
325
324
326
328
326
325
327
329
327
327
332
334
331
331
335
336
334
336
340
342
339
341
344
346
345
349
356
359
358
360
366
368
368
370
375
375
373
374
373
369
361
355
348
338
328
323
313
309
309
309
304
301
303
305
303
301
304
305
302
302
305
306
304
305
308
308
305
306
308
308
305
305
308
308
307
308
310
308
306
308
310
310
308
309
312
310
308
309
311
309
307
310
312
309
308
311
311
310
309
313
312
310
311
313
314
311
313
316
314
312
315
314
311
314
316
317
314
315
318
317
315
317
319
317
314
316
319
317
317
319
321
320
320
322
322
320
318
322
323
320
320
323
323
319
320
323
323
320
321
325
324
321
322
325
323
322
324
326
327
331
338
343
343
339
341
343
343
339
338
335
326
319
320
321
318
321
321
320
320
323
322
320
329
352
380
403
399
376
347
313
281
293
319
326
327
330
328
326
327
329
328
327
331
333
331
330
332
334
333
332
334
337
335
335
338
340
337
339
344
348
345
345
349
352
351
354
360
362
361
365
370
373
373
375
379
380
378
379
375
366
359
352
343
335
331
329
322
317
315
315
312
310
313
313
311
309
312
314
315
311
313
313
310
311
315
314
310
312
317
316
313
315
318
317
316
317
317
316
314
314
317
315
313
317
318
315
314
316
319
316
315
318
319
316
315
318
320
317
316
319
319
317
319
320
317
317
320
320
317
317
320
319
319
320
322
320
318
320
322
321
318
320
322
320
319
320
322
320
319
321
322
321
320
325
330
329
332
339
337
331
333
341
342
334
331
327
321
317
317
319
318
316
317
319
317
316
317
319
325
342
370
396
388
361
337
312
270
302
323
322
319
322
324
321
322
326
327
323
322
325
328
325
326
328
330
328
328
332
331
329
331
336
337
333
335
339
341
340
343
347
347
347
353
358
359
360
364
367
367
369
372
373
369
366
362
356
344
333
328
321
314
308
306
304
299
299
301
300
297
297
299
296
297
300
300
297
299
302
301
300
303
305
303
302
305
306
304
302
304
307
304
303
306
306
304
303
306
308
305
304
306
306
303
303
306
306
304
305
308
307
304
305
307
307
305
306
309
309
306
307
309
309
306
308
311
310
309
310
312
309
308
311
313
310
311
312
310
310
313
315
311
310
314
315
313
313
316
317
314
313
316
316
313
313
318
318
315
316
318
317
315
318
319
318
316
319
321
318
318
324
329
329
330
332
336
337
336
338
338
335
333
333
329
319
316
318
319
316
317
320
320
317
318
319
319
325
340
368
401
380
356
326
286
280
310
325
323
324
326
324
323
325
327
325
325
326
329
327
327
330
333
331
331
334
335
332
333
335
334
334
336
340
342
340
342
346
347
347
350
355
356
356
359
365
368
367
369
372
371
370
369
368
360
351
346
338
327
320
316
313
306
301
303
299
298
302
302
298
298
302
302
299
299
304
304
301
302
306
305
303
305
308
306
304
305
308
308
305
306
309
307
306
309
311
309
307
310
312
308
307
310
312
309
308
311
313
310
309
312
312
309
310
312
313
310
311
313
314
312
313
316
314
313
315
318
317
316
319
319
316
315
318
317
316
318
320
319
317
320
321
319
318
322
323
321
320
323
323
319
319
324
324
322
322
325
324
322
323
327
326
325
329
335
337
335
337
343
343
341
344
346
343
339
338
335
326
322
323
324
322
322
325
327
323
322
324
326
330
347
377
407
383
358
326
287
289
318
330
329
329
332
331
328
330
333
331
329
332
335
334
334
343
339
329
329
335
340
338
338
341
343
342
343
346
349
349
351
355
356
356
359
364
367
368
370
376
378
377
378
382
382
380
379
377
369
359
353
349
346
331
319
317
314
313
313
310
309
312
313
311
310
313
312
311
311
314
316
314
314
315
316
315
315
320
326
313
310
315
316
314
315
318
317
315
317
320
318
316
317
319
318
317
319
320
317
316
319
322
320
318
326
325
311
310
317
321
319
319
321
322
320
321
323
323
320
320
323
323
320
322
321
320
320
324
323
320
320
323
322
321
322
326
329
325
322
329
333
336
337
336
337
340
343
341
333
325
322
323
320
319
321
322
319
320
323
323
319
320
334
355
377
395
385
362
335
308
279
281
308
325
327
324
323
325
328
325
324
327
329
327
326
330
329
328
331
333
331
330
334
336
334
335
340
341
338
340
344
345
345
348
353
355
355
358
364
365
365
369
374
373
373
373
374
368
359
353
347
336
326
322
317
311
306
306
305
301
299
302
302
299
299
301
300
300
300
303
303
301
303
305
306
303
304
307
307
305
308
306
306
306
308
307
304
306
309
306
305
307
308
305
304
307
308
305
305
307
308
305
305
308
308
306
306
308
309
306
307
310
309
307
308
310
309
307
308
311
310
308
308
311
309
307
309
311
310
310
312
312
309
309
311
313
311
311
312
314
311
311
314
315
313
315
315
313
316
322
324
324
328
332
328
327
331
336
331
325
322
318
313
310
311
313
311
310
312
314
311
310
313
320
331
354
385
397
375
348
325
290
273
296
317
320
317
317
320
320
318
319
322
322
319
320
324
324
322
323
326
325
324
326
329
329
328
331
333
333
338
342
340
341
345
349
348
350
355
360
359
361
366
370
368
368
371
371
367
363
361
353
342
333
329
322
315
311
310
306
301
302
305
303
300
301
305
303
301
303
306
304
303
306
309
306
306
307
311
308
307
310
311
308
308
311
312
309
309
312
311
308
311
311
309
310
313
310
308
311
315
314
311
312
313
313
311
312
314
313
311
313
315
312
311
315
317
315
314
317
318
316
315
318
319
317
316
319
319
316
317
320
320
318
318
322
321
317
319
322
321
319
320
322
320
318
321
325
323
320
320
323
322
320
322
324
321
324
325
322
321
324
325
323
323
325
328
328
332
336
337
336
339
343
342
340
340
342
342
332
326
325
322
318
320
323
321
319
321
322
319
316
319
330
345
371
406
412
387
357
327
289
287
311
327
329
326
323
327
328
325
326
329
329
327
328
331
331
329
329
333
330
333
337
337
336
338
341
341
341
344
347
347
348
352
355
355
356
362
366
366
368
373
376
374
375
380
380
376
371
369
362
350
342
337
330
321
317
317
314
309
308
309
308
306
307
310
309
306
308
310
308
307
308
311
309
307
311
313
311
309
313
314
311
314
314
313
312
315
316
314
314
316
315
312
313
317
316
311
314
318
316
313
313
317
317
314
316
319
316
315
318
319
316
315
317
320
316
315
319
320
317
317
320
321
318
317
320
322
318
317
319
321
319
319
322
322
320
321
323
322
320
320
324
324
321
322
325
323
326
333
335
337
339
338
338
339
344
344
338
332
328
327
323
321
322
324
321
321
324
323
322
321
323
331
347
375
402
398
375
349
326
287
280
310
329
328
325
327
331
329
327
330
333
331
329
332
335
333
333
335
337
335
335
338
340
339
338
341
344
343
344
348
347
349
354
357
356
359
366
368
368
371
375
376
375
376
380
377
373
370
365
356
346
338
333
324
318
315
314
310
307
307
308
305
304
306
306
304
304
307
307
304
304
307
308
306
307
309
309
307
306
311
309
308
309
311
310
308
309
311
310
308
309
311
308
309
310
309
306
307
310
307
306
309
309
307
308
311
311
309
308
311
311
309
309
311
310
308
308
312
312
310
310
312
311
309
310
314
311
309
311
314
311
309
312
314
312
310
311
313
310
310
313
314
312
311
313
314
312
311
315
317
318
321
328
330
325
324
331
329
326
324
316
308
308
309
310
308
310
312
310
307
309
312
312
319
340
368
391
383
359
334
304
270
280
308
316
317
320
320
317
316
320
321
320
319
322
322
320
322
326
325
323
324
328
328
327
330
332
331
331
333
336
337
336
339
343
344
345
349
353
353
355
365
364
366
371
371
369
367
367
364
354
346
340
332
321
316
314
310
305
302
303
302
300
301
303
302
299
300
303
303
300
303
306
304
302
304
307
306
304
306
309
306
304
308
310
307
306
309
310
308
307
310
309
309
308
310
310
309
309
311
312
308
310
313
311
310
313
313
310
311
315
313
311
312
315
313
311
313
315
313
311
312
314
313
313
316
318
316
314
316
317
315
315
317
318
316
317
320
319
316
316
320
320
318
320
323
320
317
320
322
320
318
320
323
320
318
320
323
321
319
321
323
321
320
322
324
321
321
324
325
329
336
339
338
339
341
342
342
341
341
337
332
327
325
322
318
319
323
320
319
320
322
321
317
323
336
354
384
411
403
374
344
311
285
298
318
327
329
325
324
327
328
324
325
329
330
327
327
331
331
329
329
333
333
331
333
337
337
336
338
342
342
341
349
349
347
352
357
357
358
364
368
368
370
375
379
377
376
380
380
375
371
369
362
350
341
336
329
320
318
318
314
310
310
312
311
307
308
312
311
309
310
313
312
310
311
314
313
310
312
314
313
312
315
316
314
312
314
317
315
314
316
316
313
313
318
317
313
316
316
314
316
318
317
315
315
317
316
315
318
320
318
315
317
321
319
317
319
321
320
318
320
322
320
320
321
322
319
319
323
325
321
320
323
324
321
322
325
325
323
324
326
325
323
323
325
325
323
324
326
326
325
329
336
338
339
339
338
340
342
345
337
329
326
327
324
321
323
325
323
322
323
326
322
321
328
344
368
396
404
385
356
329
296
279
300
325
332
329
328
331
332
329
328
330
333
332
330
333
335
334
333
336
337
335
335
338
340
340
339
343
345
343
344
349
350
349
350
355
358
358
361
366
368
367
376
377
374
377
379
375
369
364
359
348
338
332
328
320
313
312
312
307
304
305
306
303
302
304
305
302
301
305
305
303
302
306
307
305
305
309
309
305
306
309
309
307
308
310
307
304
307
309
307
304
306
309
308
305
307
310
307
306
309
309
307
305
308
309
305
309
309
306
305
308
309
306
307
311
311
307
308
311
311
307
308
311
311
308
310
312
311
308
310
312
310
308
310
313
310
308
311
312
311
310
312
313
311
309
313
316
316
319
326
330
327
324
329
333
331
328
328
321
310
309
312
310
308
309
311
311
309
310
313
319
336
365
389
385
362
337
308
271
274
304
318
317
319
320
318
317
320
321
319
319
323
324
321
321
325
327
324
325
327
328
325
328
332
332
331
333
338
338
337
340
343
344
345
349
353
353
354
360
365
366
365
369
373
369
367
370
367
356
348
343
335
324
316
313
307
305
306
304
301
301
304
303
300
301
304
303
302
304
307
305
304
305
308
306
305
307
309
308
307
309
311
309
308
311
311
308
308
310
312
310
309
312
312
311
310
313
312
309
310
313
313
309
310
313
314
311
312
315
315
311
312
315
314
311
314
315
312
314
316
314
312
315
318
315
313
316
318
316
315
317
320
317
316
319
320
317
317
321
320
317
319
321
320
318
320
323
321
319
320
324
323
320
321
323
322
320
322
323
322
321
327
333
336
336
340
342
338
339
342
341
336
333
330
325
318
317
321
321
318
319
320
317
317
322
330
344
375
407
404
376
349
319
283
288
315
326
326
324
326
328
325
323
326
328
326
326
328
331
328
328
331
333
331
331
334
335
333
334
338
339
338
341
344
344
344
346
351
352
352
357
361
363
363
369
372
372
372
375
377
375
371
370
366
355
340
334
325
318
316
313
308
306
307
307
304
304
307
307
304
305
308
307
306
307
310
309
306
308
311
310
307
309
312
312
309
311
313
310
310
312
314
312
310
313
315
312
311
313
315
313
313
315
316
313
314
317
317
314
315
318
318
315
316
319
319
316
316
320
317
319
322
320
317
319
321
319
318
320
322
320
318
321
323
320
320
323
324
322
321
323
325
322
321
325
326
323
324
327
327
324
324
327
326
323
325
328
330
332
338
342
342
340
340
345
344
342
340
339
331
323
322
322
321
320
323
325
323
321
323
324
321
328
375
399
397
379
350
320
285
286
313
325
328
330
329
327
328
331
329
327
330
333
333
331
333
336
335
333
335
339
337
337
340
342
341
341
345
347
347
348
352
353
353
356
360
363
363
365
371
374
374
376
381
382
379
378
379
375
366
359
354
345
343
334
321
316
313
314
312
309
312
312
309
308
310
313
310
310
313
314
311
311
315
315
312
312
315
316
313
313
318
317
313
313
315
316
315
321
316
307
307
311
315
313
312
314
316
314
312
314
316
313
312
315
316
313
312
315
317
315
315
318
317
315
315
317
317
315
315
319
314
315
320
320
318
321
328
332
333
330
331
331
332
336
340
338
318
309
313
313
311
314
315
313
313
316
319
316
316
325
345
366
382
373
352
329
306
279
278
303
320
324
324
322
324
327
325
323
325
328
327
324
326
330
328
326
329
332
330
329
332
334
332
332
338
336
338
342
345
344
344
350
353
353
356
361
363
363
366
370
370
368
368
370
366
357
350
344
335
323
318
315
309
303
303
304
300
297
300
302
299
295
299
302
299
298
303
305
302
300
303
304
302
302
305
305
302
303
307
307
304
304
306
304
301
302
305
303
302
306
304
301
303
306
306
302
301
304
303
303
303
304
303
302
304
307
304
302
305
306
304
303
306
307
304
303
306
307
305
305
308
308
305
306
308
307
305
305
309
308
306
307
309
308
306
308
312
309
309
315
320
321
321
322
324
325
326
327
326
319
312
309
305
305
308
309
307
307
310
310
307
312
328
349
375
390
374
348
321
288
269
290
308
317
319
316
313
316
319
317
316
319
321
318
318
323
324
322
321
324
327
324
324
328
330
328
330
333
334
333
336
340
342
341
346
350
350
350
354
360
363
363
365
370
370
368
371
366
358
353
347
335
326
323
320
314
309
309
309
305
304
307
307
304
304
307
308
306
305
308
308
305
307
310
309
307
309
313
312
309
310
313
311
309
311
314
312
310
312
314
312
311
314
316
314
311
314
316
312
312
315
316
312
311
316
317
314
313
316
317
316
319
317
314
316
319
318
316
318
320
319
317
319
320
320
318
320
322
320
317
320
322
320
319
321
322
319
318
321
322
318
319
322
322
319
320
323
323
320
320
324
323
320
321
324
323
321
324
330
332
334
338
342
339
338
341
344
340
334
334
330
322
317
319
320
319
321
322
320
319
321
323
328
346
376
405
401
379
355
325
285
291
319
328
325
326
329
327
325
326
329
329
327
329
330
328
327
331
335
333
332
335
337
334
334
337
341
338
338
342
343
342
343
347
351
350
353
359
362
360
364
371
373
371
373
378
377
373
371
364
354
347
342
331
323
320
317
312
309
310
310
306
304
306
309
306
305
308
310
307
306
308
309
307
307
310
311
307
307
311
311
308
310
312
311
309
310
314
312
310
311
313
311
309
312
315
313
310
314
316
313
311
314
316
313
311
313
315
312
311
314
314
311
315
315
312
313
315
315
312
313
317
316
313
314
317
317
313
316
318
317
314
316
320
316
314
316
319
316
315
319
320
316
316
319
321
318
317
320
320
318
318
322
323
322
326
335
339
338
337
339
340
338
340
339
336
328
321
320
318
316
318
322
320
318
320
319
316
322
336
355
382
406
397
366
336
306
281
295
319
329
330
326
325
329
329
325
328
332
331
327
329
333
333
330
332
336
336
334
336
340
339
337
340
344
343
343
346
350
349
349
354
359
359
360
365
368
368
370
375
378
377
378
381
379
373
369
365
358
347
335
329
321
317
318
316
312
311
314
311
308
311
314
312
310
312
314
310
310
313
315
311
312
318
326
315
305
310
314
313
313
316
317
315
314
318
318
315
315
318
318
315
315
318
317
315
316
319
319
316
317
321
318
318
326
323
311
310
315
319
317
316
319
322
318
321
323
320
319
322
322
319
320
324
324
320
319
323
324
321
322
326
330
337
338
334
331
328
333
341
340
335
334
329
321
317
319
321
319
317
320
321
319
316
320
322
323
338
371
387
383
367
350
329
294
273
295
321
324
324
328
329
326
328
331
330
327
330
332
328
331
335
337
338
330
331
332
334
337
340
339
339
343
346
345
345
351
354
352
353
359
362
362
366
373
380
374
365
369
373
370
370
368
361
350
343
338
329
319
317
317
311
307
308
309
307
304
304
306
306
306
313
304
299
302
307
308
307
307
309
310
308
311
312
309
310
313
313
308
309
311
310
309
311
319
315
302
303
309
310
309
311
313
310
309
312
314
311
310
312
314
311
311
314
315
312
311
314
315
312
315
323
312
305
308
315
315
312
313
316
315
312
314
318
319
319
323
328
331
329
328
331
331
330
330
329
313
312
313
313
317
311
307
307
309
313
316
311
314
332
356
374
374
358
337
313
284
271
293
313
319
321
320
318
320
322
321
319
321
325
324
321
324
326
324
323
326
330
328
327
330
332
330
329
333
335
333
335
339
341
341
342
348
350
350
353
359
361
359
363
367
364
364
364
358
349
342
337
326
317
312
309
304
300
302
301
295
294
296
297
295
293
297
300
297
297
299
301
299
299
302
303
300
300
305
306
303
304
306
306
302
304
306
306
303
304
308
305
301
304
307
306
303
305
307
305
304
306
308
306
305
308
309
305
310
310
306
307
310
311
308
308
311
311
309
309
313
312
309
310
314
313
311
312
316
315
312
313
317
315
312
315
317
315
314
315
317
315
314
317
319
317
315
318
319
317
316
319
320
317
317
320
321
318
318
322
322
323
327
334
336
335
336
339
339
336
336
336
327
322
319
317
314
315
318
316
315
318
320
316
314
324
337
358
387
397
381
353
328
294
283
303
318
323
323
320
320
324
323
321
322
325
325
323
325
328
328
325
328
330
330
330
332
334
333
332
335
338
337
336
340
343
343
344
348
351
351
352
359
362
362
363
370
368
369
372
370
365
361
358
349
337
332
328
321
315
313
312
309
305
307
310
306
304
307
309
308
306
308
310
307
306
310
311
309
309
312
312
309
310
313
313
311
312
315
314
312
313
317
316
314
313
316
314
313
314
316
313
313
316
317
315
313
314
317
315
315
318
315
314
317
319
316
315
318
318
316
317
320
320
316
316
320
320
317
317
320
320
316
317
320
320
317
318
322
320
318
321
323
321
320
321
323
320
320
322
324
321
319
321
323
322
321
323
324
322
324
331
336
336
336
341
340
338
340
341
338
334
332
327
317
318
320
319
316
318
321
319
316
318
322
328
341
369
400
397
372
349
321
283
288
314
325
323
323
325
325
322
322
325
326
325
325
327
327
325
326
330
329
328
330
333
333
332
336
338
337
336
340
344
342
342
346
350
350
351
356
360
360
361
366
369
369
371
375
373
371
370
363
353
345
340
332
323
319
318
314
308
307
309
308
305
306
309
307
304
307
309
306
306
307
310
308
306
309
311
309
308
311
313
309
308
312
313
310
309
312
312
310
310
312
312
310
310
314
313
310
311
314
313
310
312
315
314
311
313
316
313
314
316
314
312
315
318
314
312
316
317
314
313
316
317
315
314
318
319
316
316
319
319
316
317
321
320
317
318
322
321
318
319
322
320
318
320
322
320
319
321
323
320
318
321
324
322
321
323
325
322
322
325
329
331
335
339
341
338
338
343
343
339
336
337
323
320
322
322
320
321
324
324
321
321
324
322
321
334
356
380
402
394
369
341
309
284
300
321
327
330
331
327
327
330
330
328
328
332
331
329
331
334
334
332
332
336
337
334
336
340
340
338
341
345
345
345
348
352
351
352
357
361
361
362
368
372
371
373
378
377
377
380
378
371
365
360
352
342
333
330
326
319
317
317
314
311
310
313
313
309
310
312
310
307
309
312
311
310
315
324
311
303
308
313
311
310
313
315
314
313
317
317
314
314
316
316
314
314
318
318
315
314
318
318
314
316
319
319
320
325
318
312
315
319
316
315
317
320
317
315
318
319
318
317
321
322
318
318
320
321
319
318
321
322
320
320
324
332
322
314
319
322
319
321
326
328
329
333
338
336
333
336
342
341
336
334
329
321
319
322
330
319
311
316
321
319
318
321
322
324
340
369
391
385
362
342
284
274
304
325
325
325
329
333
329
321
324
326
326
328
333
331
329
331
334
332
333
334
338
336
335
339
341
341
347
349
342
339
344
350
355
353
355
361
363
364
367
372
373
372
374
378
376
372
371
370
363
359
347
334
327
322
319
318
312
309
310
311
308
305
310
308
306
309
311
308
307
310
312
312
319
315
306
305
307
312
314
311
311
313
312
310
311
315
312
309
308
313
312
309
309
313
310
309
310
315
318
305
304
310
310
309
310
313
310
309
312
312
309
308
312
312
310
309
312
312
310
310
313
313
310
311
314
313
314
322
313
308
315
324
328
327
326
328
328
328
329
327
321
312
311
313
310
308
310
312
310
309
311
313
309
313
333
357
374
367
348
329
310
276
262
290
310
315
317
316
315
317
320
320
318
320
322
321
320
322
326
324
321
324
328
327
326
330
332
330
330
334
336
336
341
344
343
345
350
354
353
355
360
362
361
364
368
367
365
365
366
359
350
344
337
327
319
315
312
307
303
304
304
300
298
301
303
300
299
301
303
300
301
304
305
303
302
306
306
304
305
308
307
305
306
309
308
306
306
309
307
305
306
308
307
304
309
307
306
307
309
308
306
308
311
308
307
309
310
308
307
310
310
307
308
311
311
309
308
313
311
309
309
313
313
310
311
315
313
310
311
314
313
311
313
316
315
312
314
315
315
313
316
317
314
313
316
317
314
313
316
317
315
316
320
324
321
320
326
331
328
333
336
332
332
331
325
317
315
316
315
312
315
318
316
313
315
318
316
316
326
345
369
392
387
366
340
310
280
288
310
320
324
324
320
320
324
324
322
321
326
326
324
324
329
329
325
327
332
332
330
331
335
334
333
336
339
338
338
341
346
343
342
347
353
353
358
362
362
363
368
370
367
367
370
369
362
357
354
345
335
328
325
320
313
311
312
310
306
306
309
308
305
305
309
306
305
306
309
307
306
308
310
308
307
311
312
310
308
312
314
310
310
313
314
311
311
315
314
311
311
314
314
311
312
314
314
311
316
314
312
313
316
314
312
314
316
315
314
316
318
316
315
316
318
316
315
318
320
317
317
319
319
317
317
321
321
318
320
324
322
320
320
323
322
320
321
323
322
320
322
325
322
320
322
325
323
322
326
332
334
337
342
342
338
337
343
346
339
333
333
325
316
319
320
318
319
322
321
319
319
322
327
336
359
391
400
379
355
333
295
280
306
326
327
325
326
327
326
324
327
330
327
326
329
331
329
328
331
332
330
331
335
337
334
334
339
340
337
339
344
345
343
346
351
352
353
355
360
362
361
366
371
371
369
373
374
371
369
367
357
347
342
335
326
320
319
316
310
307
311
310
307
306
310
310
307
308
311
310
308
309
313
311
309
310
313
312
309
311
315
314
311
313
315
313
311
313
315
313
312
314
316
313
312
314
315
312
311
313
315
312
312
316
316
312
313
316
316
312
316
316
313
314
317
316
314
316
318
316
313
315
318
317
316
317
320
317
315
318
319
317
316
320
320
318
317
320
321
318
318
322
322
320
320
323
323
319
320
323
322
320
321
325
325
326
332
340
342
339
339
341
342
341
341
339
333
323
322
322
319
319
320
322
318
321
323
320
324
338
359
384
400
388
360
332
301
282
302
320
327
330
328
326
329
339
333
321
322
329
329
328
331
333
332
331
335
337
336
334
338
340
339
339
342
344
342
344
349
351
350
351
355
359
358
361
368
369
367
371
375
376
374
375
377
378
374
357
341
334
330
327
320
314
315
316
313
310
311
312
309
308
311
313
310
310
314
313
310
311
315
318
321
311
308
311
310
313
316
315
313
314
316
316
313
314
316
315
312
314
317
316
314
316
318
316
318
325
314
307
310
316
317
315
313
317
319
317
316
319
319
317
321
320
317
317
321
321
319
321
324
322
320
321
323
322
324
330
321
315
317
322
323
321
320
323
324
322
326
333
338
337
339
340
339
338
340
344
345
330
318
319
320
318
318
322
322
318
319
322
323
321
323
336
357
380
391
378
355
331
304
279
291
323
332
323
324
328
330
327
328
330
332
329
330
333
334
331
331
336
338
335
335
339
340
339
340
344
344
343
345
349
349
352
358
352
350
355
362
367
367
367
371
374
372
372
373
374
369
363
358
350
340
331
328
323
316
313
314
311
306
306
309
308
305
308
315
304
298
303
309
306
307
310
308
307
309
312
309
307
309
312
310
308
310
312
309
308
310
311
307
306
310
310
307
307
310
311
306
306
310
309
306
307
316
315
302
302
308
308
306
308
310
310
307
309
312
310
308
310
312
310
309
312
315
312
312
315
320
321
324
329
328
324
332
332
327
324
320
313
308
309
312
310
308
309
313
310
309
311
316
324
341
367
382
362
336
318
292
264
277
309
320
317
315
318
321
318
317
320
321
318
317
321
323
321
320
324
324
322
324
327
328
326
328
332
332
330
333
338
339
338
341
346
347
346
352
357
357
361
365
364
363
366
367
362
357
354
347
337
327
324
318
311
307
306
305
301
300
301
301
297
297
301
300
298
300
303
302
301
302
305
304
302
304
306
305
304
306
307
305
304
306
307
304
304
307
309
307
305
307
308
306
306
310
310
307
308
310
310
306
307
309
306
308
311
311
308
309
313
312
309
311
313
312
310
311
315
312
311
313
315
313
312
315
317
313
312
316
317
315
313
317
317
317
319
322
320
319
322
325
325
323
327
333
334
327
324
321
316
312
314
318
317
314
316
319
317
315
317
319
318
325
345
369
393
368
345
314
278
287
314
321
322
326
325
322
323
327
327
324
325
328
328
326
328
331
330
328
331
334
334
332
335
337
335
335
339
342
341
341
344
348
348
349
354
357
358
359
365
368
367
367
372
372
369
368
369
365
355
347
342
333
323
319
318
313
308
308
310
304
307
310
307
305
307
309
306
304
307
309
306
305
310
312
309
308
312
314
310
309
312
314
309
310
313
314
311
311
315
315
311
312
315
314
311
313
316
314
312
314
316
315
314
315
317
316
314
316
318
315
314
317
319
316
315
318
318
315
316
319
319
317
316
319
316
317
321
320
317
318
321
320
318
319
323
321
318
320
323
320
318
321
323
320
318
322
324
322
321
325
330
332
334
340
342
338
337
341
342
337
332
332
324
318
318
321
321
318
317
321
320
316
317
320
326
336
362
395
400
376
353
329
290
281
308
326
326
325
327
325
324
325
328
325
324
328
329
328
328
331
333
330
331
335
336
334
336
340
339
338
341
345
346
344
347
353
353
354
358
362
362
363
367
372
372
372
375
377
374
372
371
366
356
345
340
334
324
320
319
316
311
309
310
310
307
307
310
309
307
306
310
306
308
311
309
308
310
312
310
308
310
312
310
309
311
312
311
310
311
313
310
309
311
312
308
308
312
312
309
310
313
313
311
311
313
314
311
312
315
314
312
313
317
314
312
314
316
314
312
315
317
315
314
316
318
316
314
317
319
316
315
319
320
316
316
320
318
317
320
321
318
318
322
322
319
319
323
323
323
328
336
339
338
338
339
338
339
340
337
331
323
320
322
318
317
320
321
319
318
321
322
317
319
333
353
376
399
394
367
337
307
280
294
316
325
329
328
325
326
329
328
326
328
332
330
328
331
334
332
334
337
334
334
338
339
337
338
341
343
343
343
348
349
349
351
356
358
358
360
367
369
369
371
374
374
373
375
377
373
365
360
355
345
334
329
327
320
315
315
316
311
308
310
311
309
308
311
312
308
307
312
313
309
309
313
314
311
311
315
315
312
312
316
312
313
316
314
313
315
317
316
313
315
318
316
312
315
318
316
314
316
318
316
315
317
318
315
315
318
318
314
314
318
319
315
315
319
318
315
315
318
318
315
317
320
319
317
318
321
319
315
317
320
319
317
319
321
319
321
327
334
335
334
335
336
335
336
335
328
319
317
317
315
313
317
318
315
314
317
318
315
318
332
353
377
391
377
347
319
289
268
285
312
322
323
322
321
323
326
323
322
325
327
325
324
328
330
327
326
329
332
330
330
335
335
333
334
339
340
338
340
346
348
345
348
354
356
355
360
365
366
368
373
373
370
371
372
365
357
352
345
334
324
321
317
311
307
307
306
302
300
302
304
301
301
304
304
301
302
307
306
303
305
308
308
306
308
310
310
307
309
311
309
307
309
311
309
306
309
311
308
307
308
310
308
308
310
310
308
308
311
312
309
309
311
310
309
312
312
309
310
313
312
309
311
314
311
309
311
314
312
310
313
315
313
310
313
316
314
312
315
316
313
312
314
316
315
313
317
317
315
316
320
321
322
328
334
336
332
330
336
339
333
330
328
319
312
313
315
314
312
315
317
315
313
316
318
320
332
390
399
378
352
327
288
271
301
323
322
320
323
324
321
321
324
325
323
324
326
327
324
326
330
329
328
329
333
332
331
333
336
336
336
339
343
341
342
346
350
349
349
355
359
358
360
365
368
367
368
374
375
370
368
368
363
353
344
339
332
321
317
316
313
308
310
308
305
305
308
306
305
307
310
308
306
310
312
310
309
312
313
312
311
313
314
312
311
314
315
311
310
313
313
310
311
314
314
310
312
313
314
311
312
316
314
311
312
315
314
312
314
316
315
313
315
317
315
314
316
316
315
314
316
318
315
313
316
316
315
320
320
317
316
320
320
318
317
321
321
317
318
321
319
316
318
321
320
318
319
321
321
320
324
331
333
335
339
340
335
335
342
343
336
332
329
323
318
315
318
320
318
318
320
321
318
317
321
329
343
371
401
399
370
343
317
280
284
313
327
326
322
326
325
324
325
328
326
324
328
330
328
327
331
332
331
330
333
335
333
334
338
339
337
339
344
345
343
346
351
353
353
356
362
363
362
366
370
371
371
374
376
374
369
365
361
351
341
336
330
321
315
315
313
309
306
307
306
304
304
306
307
304
304
307
307
306
309
310
307
308
310
309
308
309
312
311
309
310
314
312
309
311
314
311
309
312
313
310
310
312
314
311
309
312
313
311
309
314
314
311
311
314
314
312
312
315
315
312
312
316
315
312
314
317
316
314
315
319
316
314
316
317
317
316
318
320
318
316
320
318
317
320
322
319
319
322
322
319
320
323
323
320
322
329
333
333
338
344
340
335
339
344
339
333
331
326
320
317
318
320
318
317
319
321
319
319
322
327
339
364
395
404
379
348
324
289
276
303
326
329
325
325
329
329
326
328
330
330
328
329
334
332
330
335
334
332
336
338
338
340
350
345
335
336
344
348
346
347
351
354
354
355
362
366
366
368
371
374
373
374
376
376
372
368
366
358
346
338
336
329
320
317
317
317
316
305
304
304
304
307
310
308
307
308
310
309
308
312
314
310
311
315
315
312
312
317
324
305
310
312
311
311
313
314
311
312
314
315
312
311
315
314
313
315
317
315
313
315
317
317
321
317
310
309
311
315
316
313
314
318
318
316
316
319
320
317
317
319
319
317
318
323
329
318
312
318
322
324
328
334
337
333
332
337
339
337
335
333
325
319
322
313
309
315
319
318
317
320
322
322
331
356
382
386
368
352
330
299
274
292
321
334
324
321
326
326
327
332
331
328
329
334
333
331
332
336
336
335
337
340
339
345
338
335
336
339
344
346
346
347
352
353
353
357
361
363
363
364
370
372
370
373
382
370
365
368
362
350
343
339
331
323
321
320
314
309
309
312
309
311
316
305
301
304
308
310
310
308
312
312
310
311
315
315
312
313
316
316
318
318
311
309
309
311
316
315
312
314
316
314
311
314
315
315
314
316
318
317
317
309
309
311
313
316
317
313
314
318
317
314
317
318
315
315
318
318
314
318
326
312
306
312
319
320
320
322
329
332
329
330
334
333
332
331
330
324
315
317
323
310
304
311
315
314
313
314
316
313
320
339
361
372
363
347
328
303
275
279
307
320
320
322
327
323
314
318
322
321
322
326
324
321
325
328
326
327
329
328
328
332
333
331
332
339
345
339
330
335
342
343
345
350
353
352
354
361
364
361
362
366
367
365
363
363
356
346
340
335
326
321
320
308
302
302
304
305
301
299
301
303
302
300
304
306
303
303
306
306
303
304
307
309
306
306
309
311
314
304
306
306
307
309
308
305
306
310
308
306
308
310
309
306
307
310
309
306
309
310
309
307
309
311
309
307
310
313
309
309
312
312
310
309
311
311
309
309
315
316
315
316
319
319
317
317
321
322
321
325
328
323
318
314
314
310
307
311
313
310
309
312
314
310
313
315
317
330
354
375
372
350
331
311
275
265
295
315
315
315
318
318
315
316
319
319
316
318
321
320
320
321
324
323
320
321
326
325
324
327
330
328
328
332
335
333
334
339
342
342
344
349
352
352
355
359
361
359
361
365
365
361
358
356
348
337
331
320
310
308
309
305
302
302
303
300
298
301
302
300
299
301
302
300
300
304
306
304
303
306
307
304
304
307
308
305
306
309
308
306
307
309
309
306
307
310
310
307
308
311
309
308
309
311
310
308
311
313
311
310
314
315
312
311
314
316
312
312
315
316
313
316
317
314
315
318
317
314
314
318
318
315
316
319
318
316
317
319
318
316
318
320
319
317
318
320
318
318
320
322
319
319
321
323
320
319
322
323
322
324
327
328
324
326
332
331
329
330
336
337
334
332
330
324
319
320
322
321
319
321
323
322
319
320
323
319
329
347
372
399
398
379
352
321
289
297
315
324
330
330
326
325
328
330
327
328
331
332
330
330
334
334
332
333
335
334
333
336
339
338
337
339
342
342
341
345
348
348
349
354
358
357
359
363
367
366
367
371
373
371
372
374
372
367
360
356
347
336
330
323
315
313
314
311
307
307
310
309
306
308
311
309
305
308
310
309
307
310
312
310
308
311
314
311
308
312
313
311
311
313
314
311
310
314
315
312
312
316
315
312
313
316
314
311
313
317
315
312
314
317
315
313
315
317
317
314
316
318
315
314
316
318
316
319
320
316
315
319
320
317
317
320
320
318
318
321
320
318
318
321
320
318
319
322
321
318
320
323
322
319
321
323
322
320
321
323
321
320
324
329
331
334
339
342
337
336
341
343
337
333
333
326
317
316
320
320
318
318
321
320
316
317
321
322
329
347
377
391
372
351
313
278
294
320
326
323
325
326
324
324
326
326
324
323
327
328
326
326
329
330
328
329
332
334
331
332
336
337
335
336
341
341
341
344
348
348
348
353
359
359
359
363
368
368
368
372
374
372
370
371
367
357
349
343
337
327
320
318
316
309
307
308
305
304
307
306
304
304
307
306
303
305
309
308
305
307
310
308
306
308
310
308
306
310
312
310
309
310
311
309
309
311
312
310
309
311
312
309
310
314
314
310
310
314
313
310
311
314
314
312
312
316
314
314
314
316
314
312
315
318
316
315
317
319
318
318
322
325
322
314
314
315
317
318
320
318
319
322
321
319
320
324
322
319
321
323
322
319
321
323
323
321
324
327
325
329
334
330
332
336
339
339
337
339
343
343
337
330
325
323
319
319
323
323
319
319
321
322
318
318
327
341
362
398
405
379
350
326
295
300
321
329
327
324
325
328
328
326
327
330
329
328
330
331
332
332
335
336
334
334
337
340
338
339
343
344
346
351
345
343
345
349
354
357
356
361
366
369
368
370
376
376
375
376
378
376
371
366
362
353
342
337
333
324
318
317
318
320
309
304
307
308
308
311
309
309
312
313
312
311
313
313
311
312
315
315
312
313
317
316
313
312
314
312
311
313
315
313
312
312
314
312
311
315
316
313
310
314
314
312
312
315
316
313
314
317
317
313
313
315
316
312
313
316
316
313
314
315
314
312
314
317
316
314
315
317
316
315
317
316
314
315
317
316
314
315
317
315
315
318
320
321
325
332
334
331
329
331
335
333
331
329
326
315
311
313
312
309
310
315
314
311
311
313
312
314
329
356
380
386
367
341
313
280
264
289
312
317
318
320
319
318
320
322
320
319
324
324
321
323
326
324
325
328
329
327
329
333
333
331
334
337
337
337
340
344
344
345
349
354
354
355
360
364
364
364
368
371
370
367
368
366
358
349
342
335
324
318
315
312
305
303
305
303
300
300
302
301
298
300
304
302
299
302
306
305
302
305
307
306
304
307
309
306
305
310
305
306
308
309
306
304
308
309
306
305
308
308
305
306
309
309
307
306
309
308
306
308
312
311
307
309
312
311
308
310
312
312
311
311
313
311
310
312
314
312
309
312
315
312
311
314
315
313
313
316
316
313
312
315
316
313
314
318
318
315
316
319
318
317
319
318
316
318
322
325
329
334
338
337
334
337
340
338
333
333
330
320
315
317
318
315
315
317
318
315
315
318
319
323
337
366
397
397
374
350
321
280
281
310
323
323
324
326
324
322
325
327
326
323
326
329
329
328
330
332
330
330
332
334
333
331
335
337
337
343
345
343
344
348
349
349
351
357
358
358
362
367
369
367
370
375
374
371
370
370
364
353
346
340
331
324
321
319
313
308
308
309
305
303
305
307
305
305
306
308
306
306
309
310
307
307
310
310
307
308
311
309
307
309
312
311
308
310
312
311
308
313
310
308
311
314
311
310
311
313
311
310
312
314
311
311
313
315
313
311
315
315
312
312
315
316
313
313
316
316
313
315
317
316
315
316
318
317
315
317
320
318
316
318
319
317
316
318
319
318
318
320
322
319
318
320
322
317
318
321
323
321
321
325
329
335
342
342
337
337
342
344
338
336
334
325
