timestmp;smpleCnt;grnCnt;led2;led3;grn2Cnt;irCnt;redCnt;hr3;rr5;spo2
11:34:30.888971;53;147129;117758;129850;186795;524159;524159;60.0;0.0;0.0
11:34:30.898833;54;146867;117783;129856;186904;524159;524159;60.0;0.0;0.0
11:34:30.903857;55;146768;117822;129862;187166;524159;524159;60.0;0.0;0.0
11:34:30.908879;56;146809;117868;129884;187535;524159;524159;60.0;0.0;0.0
11:34:30.918966;57;146922;117902;129894;187950;524159;524159;60.0;0.0;0.0
11:34:31.088901;58;147078;117931;129894;188394;524159;524159;60.0;0.0;0.0
11:34:31.104369;59;147235;117956;129896;188809;524159;524159;60.0;0.0;0.0
11:34:31.108911;60;147388;117975;129911;189190;524159;524159;60.0;0.0;0.0
11:34:31.119006;61;147540;117991;129916;189548;524159;524159;60.0;0.0;0.0
11:34:31.119006;62;147763;118012;129922;189955;524159;524159;60.0;0.0;0.0
11:34:31.289241;63;148023;118057;129937;190368;524159;524159;60.0;0.0;0.0
11:34:31.298856;64;148346;118091;129955;190828;524159;524159;60.0;0.0;0.0
11:34:31.309069;65;148724;118142;129981;191314;524159;524159;60.0;0.0;0.0
11:34:31.324019;66;149017;118146;129973;191732;524159;524159;60.0;0.0;0.0
11:34:31.329048;67;148242;117878;129767;191155;524159;524159;60.0;0.0;0.0
11:34:31.489036;68;146272;117509;129511;189378;524159;524159;60.0;0.0;0.0
11:34:31.498927;69;144367;117299;129379;187549;524159;524159;60.0;0.0;0.0
11:34:31.504629;70;143086;117210;129333;186271;524159;524159;60.0;0.0;0.0
11:34:31.509159;71;142362;117185;129315;185520;524159;524159;60.0;0.0;0.0
11:34:31.519029;72;142059;117193;129317;185213;524159;524159;60.0;0.0;0.0
11:34:31.688929;73;141955;117203;129303;185143;524159;524159;60.0;0.0;0.0
11:34:31.698906;74;141724;117149;129252;184933;524159;524159;60.0;0.0;0.0
11:34:31.709054;75;141363;117071;129186;184602;524159;524159;60.0;0.0;0.0
11:34:31.709054;76;141098;117011;129136;184331;524159;524159;60.0;0.0;0.0
11:34:31.719038;77;141092;117009;129123;184312;524159;524159;60.0;0.0;0.0
11:34:31.888960;78;141293;117037;129132;184510;524159;524159;60.0;0.0;0.0
11:34:31.898877;79;141626;117078;129150;184861;524159;524159;60.0;0.0;0.0
11:34:31.904850;80;142011;117124;129167;185265;524159;524159;60.0;0.0;0.0
11:34:31.908870;81;142400;117150;129184;185717;524159;524159;60.0;0.0;0.0
11:34:31.918826;82;142759;117180;129201;186171;524159;524159;60.0;0.0;0.0
11:34:32.089173;83;143094;117196;129203;186621;524159;524159;60.0;0.0;0.0
11:34:32.098912;84;143450;117229;129219;187101;524159;524159;60.0;0.0;0.0
11:34:32.109202;85;143839;117269;129231;187591;524159;524159;60.0;0.0;0.0
11:34:32.109202;86;144318;117321;129268;188166;524159;524159;60.0;0.0;0.0
11:34:32.118906;87;144813;117374;129299;188761;524159;524159;60.0;0.0;0.0
11:34:32.289039;88;144972;117302;129220;189024;524159;524159;60.0;0.0;0.0
11:34:32.299288;89;143973;116989;129009;188098;524159;524159;59.0;0.0;0.0
11:34:32.309114;90;142481;116727;128837;186587;524159;524159;59.0;0.0;0.0
11:34:32.309114;91;141425;116635;128786;185448;524159;524159;59.0;0.0;0.0
11:34:32.318879;92;140935;116603;128770;184817;524159;524159;59.0;0.0;0.0
11:34:32.488981;93;140920;116641;128784;184684;524159;524159;59.0;0.0;0.0
11:34:32.499195;94;141163;116692;128817;184859;524159;524159;59.0;0.0;0.0
11:34:32.508974;95;141265;116680;128817;184970;524159;524159;59.0;0.0;0.0
11:34:32.508974;96;141159;116641;128780;184864;524159;524159;59.0;0.0;0.0
11:34:32.519348;97;141043;116621;128770;184725;524159;524159;59.0;0.0;0.0
11:34:32.689334;98;141101;116643;128782;184744;524159;524159;59.0;0.0;0.0
11:34:32.705289;99;141329;116672;128795;184930;524159;524159;59.0;0.0;0.0
11:34:32.709312;100;141673;116719;128840;185269;524159;524159;59.0;0.0;0.0
11:34:32.709312;101;142081;116777;128867;185701;524159;524159;59.0;0.0;0.0
11:34:32.718913;102;142508;116833;128903;186167;524159;524159;59.0;0.0;0.0
11:34:32.889298;103;142911;116879;128938;186627;524159;524159;59.0;939.7;0.0
11:34:32.905823;104;143308;116928;128961;187091;524159;524159;59.0;0.0;0.0
11:34:32.913872;105;143712;116972;128988;187555;524159;524159;59.0;0.0;0.0
11:34:32.913872;106;143962;116950;128969;187857;524159;524159;59.0;0.0;0.0
11:34:32.923914;107;143329;116743;128811;187232;524159;524159;59.0;0.0;0.0
11:34:33.089230;108;142142;116524;128656;185956;524159;524159;59.0;0.0;0.0
11:34:33.106182;109;141247;116423;128595;184885;524159;524159;59.0;0.0;0.0
11:34:33.109235;110;140897;116423;128592;184350;524159;524159;59.0;0.0;0.0
11:34:33.119157;111;141028;116477;128615;184362;524159;524159;59.0;0.0;0.0
11:34:33.129349;112;141433;116528;128645;184676;524159;524159;59.0;0.0;0.0
11:34:33.289282;113;141684;116528;128628;184899;524159;524159;59.0;0.0;0.0
11:34:33.299130;114;141728;116490;128585;184945;524159;524159;59.0;0.0;0.0
11:34:33.308818;115;141715;116465;128564;184929;524159;524159;59.0;0.0;0.0
11:34:33.308818;116;141848;116469;128557;185041;524159;524159;59.0;0.0;0.0
11:34:33.324235;117;142138;116520;128583;185303;524159;524159;59.0;0.0;0.0
11:34:33.499011;118;142550;116585;128630;185697;524159;524159;59.0;0.0;0.0
11:34:33.506430;119;143032;116667;128680;186185;524159;524159;59.0;0.0;0.0
11:34:33.508967;120;143507;116737;128731;186694;524159;524159;59.0;0.0;0.0
11:34:33.519263;121;143983;116797;128770;187247;524159;524159;59.0;0.0;0.0
11:34:33.519263;122;144436;116848;128800;187791;524159;524159;59.0;0.0;0.0
11:34:33.689035;123;144907;116883;128805;188359;524159;524159;59.0;0.0;0.0
11:34:33.704133;124;145269;116874;128783;188849;524159;524159;59.0;0.0;0.0
11:34:33.709205;125;144785;116654;128607;188414;524159;524159;59.0;894.8;0.0
11:34:33.719039;126;143485;116362;128409;187005;524159;524159;59.0;0.0;0.0
11:34:33.728906;127;142353;116208;128305;185642;524159;524159;59.0;0.0;0.0
11:34:33.888906;128;141789;116175;128276;184819;524159;524159;59.0;0.0;0.0
11:34:33.898878;129;141690;116186;128277;184528;524159;524159;59.0;0.0;0.0
11:34:33.909065;130;141964;116235;128301;184661;524159;524159;59.0;0.0;0.0
11:34:33.909065;131;142244;116254;128309;184859;524159;524159;59.0;0.0;0.0
11:34:33.918945;132;142330;116228;128286;184904;524159;524159;59.0;0.0;0.0
11:34:34.089271;133;142292;116209;128275;184833;524159;524159;59.0;0.0;0.0
11:34:34.098756;134;142380;116219;128288;184887;524159;524159;59.0;0.0;0.0
11:34:34.109124;135;142638;116262;128302;185099;524159;524159;59.0;0.0;0.0
11:34:34.119214;136;143033;116315;128343;185478;524159;524159;59.0;0.0;0.0
11:34:34.119214;137;143486;116394;128383;185946;524159;524159;59.0;0.0;0.0
11:34:34.289071;138;143944;116466;128449;186457;524159;524159;59.0;0.0;0.0
11:34:34.304024;139;144388;116535;128501;186992;524159;524159;59.0;0.0;0.0
11:34:34.314124;140;144811;116589;128543;187511;524159;524159;59.0;0.0;0.0
11:34:34.319172;141;145234;116644;128576;188028;524159;524159;59.0;0.0;0.0
11:34:34.329169;142;145664;116696;128616;188558;524159;524159;59.0;0.0;0.0
11:34:34.488805;143;146130;116757;128654;189138;524159;524159;59.0;0.0;0.0
11:34:34.499233;144;146366;116720;128621;189487;524159;524159;59.0;0.0;0.0
11:34:34.509244;145;145637;116484;128442;188798;524159;524159;59.0;0.0;0.0
11:34:34.519201;146;144403;116258;128295;187436;524159;524159;59.0;0.0;0.0
11:34:34.524206;147;143519;116168;128243;186369;524159;524159;59.0;863.8;0.0
11:34:34.699094;148;143153;116160;128246;185822;524159;524159;59.0;0.0;0.0
11:34:34.699094;149;143201;116214;128275;185760;524159;524159;59.0;0.0;0.0
11:34:34.709046;150;143495;116267;128303;185998;524159;524159;59.0;0.0;0.0
11:34:34.721247;151;143728;116276;128308;186223;524159;524159;59.0;0.0;0.0
11:34:34.726763;152;143766;116253;128288;186273;524159;524159;59.0;0.0;0.0
11:34:34.899063;153;143790;116242;128273;186260;524159;524159;59.0;0.0;0.0
11:34:34.907160;154;143942;116270;128294;186418;524159;524159;59.0;0.0;0.0
11:34:34.909197;155;144253;116316;128323;186753;524159;524159;59.0;0.0;0.0
11:34:34.919171;156;144649;116376;128361;187178;524159;524159;59.0;0.0;0.0
11:34:34.929186;157;145115;116442;128399;187724;524159;524159;59.0;0.0;0.0
11:34:35.089021;158;145565;116509;128442;188286;524159;524159;59.0;0.0;0.0
11:34:35.099208;159;146005;116569;128481;188844;524159;524159;59.0;0.0;0.0
11:34:35.108841;160;146439;116617;128515;189389;524159;524159;59.0;0.0;0.0
11:34:35.118984;161;146865;116661;128542;189934;524159;524159;59.0;0.0;0.0
11:34:35.118984;162;146897;116585;128477;190080;524159;524159;59.0;0.0;0.0
11:34:35.299021;163;146123;116371;128328;189320;524159;524159;59.0;0.0;0.0
11:34:35.299021;164;145210;116237;128241;188315;524159;524159;61.0;722.5;0.0
11:34:35.308839;165;144709;116211;128231;187665;524159;524159;61.0;0.0;0.0
11:34:35.319081;166;144719;116258;128263;187561;524159;524159;61.0;0.0;0.0
11:34:35.319081;167;145092;116340;128320;187867;524159;524159;61.0;0.0;0.0
11:34:35.498943;168;145486;116398;128352;188278;524159;524159;61.0;0.0;0.0
11:34:35.498943;169;145672;116398;128338;188549;524159;524159;62.0;0.0;0.0
11:34:35.509240;170;145733;116389;128339;188682;524159;524159;62.0;0.0;0.0
11:34:35.518935;171;145835;116406;128349;188853;524159;524159;62.0;0.0;0.0
11:34:35.518935;172;146073;116452;128380;189167;524159;524159;62.0;0.0;0.0
11:34:35.698903;173;146429;116522;128426;189603;524159;524159;62.0;0.0;0.0
11:34:35.698903;174;146875;116596;128468;190155;524159;524159;64.0;0.0;0.0
11:34:35.709260;175;147360;116664;128520;190757;524159;524159;64.0;0.0;0.0
11:34:35.719015;176;147854;116732;128567;191364;524159;524159;64.0;0.0;0.0
11:34:35.719015;177;148323;116796;128597;191967;524159;524159;64.0;0.0;0.0
11:34:35.899102;178;148781;116848;128637;192570;524159;524159;64.0;0.0;0.0
11:34:35.907290;179;149083;116859;128635;193042;524159;524159;66.0;0.0;0.0
11:34:35.909325;180;148633;116672;128492;192712;524159;524159;66.0;0.0;0.0
11:34:35.919225;181;147640;116485;128373;191706;524159;524159;66.0;0.0;0.0
11:34:35.919225;182;146898;116423;128338;190876;524159;524159;66.0;0.0;0.0
11:34:36.099100;183;146675;116443;128356;190557;524159;524159;66.0;730.7;0.0
11:34:36.107376;184;146876;116524;128404;190720;524159;524159;67.0;0.0;0.0
11:34:36.108910;185;147302;116614;128457;191151;524159;524159;67.0;0.0;0.0
11:34:36.118913;186;147602;116628;128474;191502;524159;524159;67.0;0.0;0.0
11:34:36.118913;187;147691;116624;128456;191668;524159;524159;67.0;0.0;0.0
11:34:36.298937;188;147751;116619;128456;191783;524159;524159;67.0;0.0;0.0
11:34:36.307530;189;147903;116643;128469;191993;524159;524159;68.0;0.0;0.0
11:34:36.309052;190;148212;116696;128500;192364;524159;524159;68.0;0.0;0.0
11:34:36.319142;191;148624;116755;128551;192864;524159;524159;68.0;0.0;0.0
11:34:36.319142;192;149091;116828;128588;193456;524159;524159;68.0;0.0;0.0
11:34:36.499244;193;149584;116889;128628;194080;524159;524159;68.0;0.0;0.0
11:34:36.499244;194;150045;116953;128670;194691;524159;524159;69.0;0.0;0.0
11:34:36.509060;195;150486;117010;128705;195282;524159;524159;69.0;0.0;0.0
11:34:36.519086;196;150909;117064;128756;195855;524159;524159;69.0;0.0;0.0
11:34:36.528980;197;151373;117126;128788;196473;524159;524159;69.0;0.0;0.0
11:34:36.698998;198;151846;117202;128837;197096;524159;524159;69.0;0.0;0.0
11:34:36.708142;199;152003;117137;128787;197424;524159;524159;70.0;0.0;0.0
11:34:36.709179;200;151278;116931;128630;196803;524159;524159;70.0;0.0;0.0
11:34:36.723825;201;150334;116774;128534;195850;524159;524159;70.0;0.0;0.0
11:34:36.728858;202;149805;116761;128535;195262;524159;524159;70.0;0.0;0.0
11:34:36.899006;203;149804;116819;128579;195190;524159;524159;76.0;786.3;0.0
11:34:36.908878;204;150152;116914;128639;195502;524159;524159;76.0;0.0;0.0
11:34:36.908878;205;150540;116978;128688;195901;524159;524159;76.0;0.0;0.0
11:34:36.919056;206;150718;116975;128681;196165;524159;524159;76.0;0.0;0.0
11:34:36.929085;207;150717;116966;128673;196237;524159;524159;76.0;0.0;0.0
11:34:37.099111;208;150774;116980;128681;196353;524159;524159;76.0;0.0;0.0
11:34:37.108471;209;150963;117029;128715;196610;524159;524159;76.0;0.0;0.0
11:34:37.108990;210;151293;117095;128770;197013;524159;524159;76.0;0.0;0.0
11:34:37.118916;211;151701;117167;128813;197516;524159;524159;76.0;0.0;0.0
11:34:37.128905;212;152156;117244;128864;198089;524159;524159;76.0;0.0;0.0
11:34:37.299163;213;152616;117300;128915;198664;524159;524159;76.0;0.0;0.0
11:34:37.309187;214;153047;117366;128952;199227;524159;524159;76.0;0.0;0.0
11:34:37.324302;215;153465;117427;128988;199774;524159;524159;76.0;0.0;0.0
11:34:37.328857;216;153897;117492;129036;200316;524159;524159;76.0;0.0;0.0
11:34:37.328857;217;154247;117528;129061;200803;524159;524159;76.0;0.0;0.0
11:34:37.499085;218;154041;117410;128974;200705;524159;524159;76.0;0.0;0.0
11:34:37.508626;219;153292;117258;128866;199992;524159;524159;76.0;0.0;0.0
11:34:37.509134;220;152666;117198;128853;199354;524159;524159;76.0;0.0;0.0
11:34:37.518846;221;152517;117262;128896;199144;524159;524159;76.0;0.0;0.0
11:34:37.528824;222;152847;117372;128978;199460;524159;524159;76.0;0.0;0.0
11:34:37.699111;223;153303;117479;129048;199958;524159;524159;76.0;0.0;0.0
11:34:37.709039;224;153591;117513;129081;200287;524159;524159;76.0;0.0;0.0
11:34:37.709039;225;153639;117505;129084;200410;524159;524159;76.0;0.0;0.0
11:34:37.719049;226;153650;117521;129089;200470;524159;524159;76.0;0.0;0.0
11:34:37.729028;227;153776;117563;129119;200649;524159;524159;76.0;0.0;0.0
11:34:37.898911;228;154023;117619;129167;200948;524159;524159;76.0;0.0;0.0
11:34:37.908790;229;154358;117698;129223;201343;524159;524159;76.0;0.0;0.0
11:34:37.908790;230;154754;117772;129271;201795;524159;524159;76.0;0.0;0.0
11:34:37.924056;231;155164;117846;129330;202275;524159;524159;76.0;0.0;0.0
11:34:37.929093;232;155564;117910;129375;202771;524159;524159;76.0;0.0;0.0
11:34:38.099166;233;155937;117956;129409;203246;524159;524159;76.0;0.0;0.0
11:34:38.108970;234;155977;117897;129354;203377;524159;524159;76.0;0.0;0.0
11:34:38.108970;235;155116;117677;129199;202536;524159;524159;76.0;0.0;0.0
11:34:38.124025;236;153986;117520;129101;201312;524159;524159;76.0;0.0;0.0
11:34:38.129056;237;153240;117492;129086;200427;524159;524159;76.0;0.0;0.0
11:34:38.303833;238;153024;117529;129128;200067;524159;524159;75.0;693.5;0.0
11:34:38.313887;239;153211;117622;129190;200153;524159;524159;75.0;0.0;0.0
11:34:38.313887;240;153498;117683;129228;200381;524159;524159;75.0;0.0;0.0
11:34:38.318927;241;153587;117679;129232;200447;524159;524159;75.0;0.0;0.0
11:34:38.328983;242;153476;117654;129209;200318;524159;524159;75.0;0.0;0.0
11:34:38.498813;243;153401;117662;129215;200217;524159;524159;75.0;0.0;0.0
11:34:38.509025;244;153464;117681;129232;200251;524159;524159;75.0;0.0;0.0
11:34:38.518912;245;153673;117736;129263;200409;524159;524159;75.0;0.0;0.0
11:34:38.518912;246;153971;117791;129301;200710;524159;524159;75.0;0.0;0.0
11:34:38.529301;247;154319;117847;129345;201068;524159;524159;75.0;0.0;0.0
11:34:38.699026;248;154691;117915;129391;201460;524159;524159;75.0;0.0;0.0
11:34:38.719003;249;155022;117964;129418;201816;524159;524159;75.0;0.0;0.0
11:34:38.729070;250;155363;117999;129437;202188;524159;524159;75.0;0.0;0.0
11:34:38.739346;251;155579;117989;129434;202453;524159;524159;75.0;0.0;0.0
11:34:38.740491;252;154955;117788;129285;201805;524159;524159;75.0;0.0;0.0
11:34:38.899240;253;153486;117520;129100;200131;524159;524159;75.0;0.0;0.0
11:34:38.918857;254;152137;117389;129023;198425;524159;524159;75.0;0.0;0.0
11:34:38.918857;255;151328;117352;129019;197211;524159;524159;75.0;0.0;0.0
11:34:38.928966;256;150977;117364;129031;196504;524159;524159;75.0;0.0;0.0
11:34:38.928966;257;150983;117403;129049;196240;524159;524159;75.0;781.3;0.0
11:34:39.098798;258;151010;117406;129061;196057;524159;524159;75.0;0.0;0.0
11:34:39.109585;259;150844;117372;129033;195707;524159;524159;75.0;0.0;0.0
11:34:39.109585;260;150595;117335;129012;195261;524159;524159;75.0;0.0;0.0
11:34:39.119083;261;150436;117340;129012;194913;524159;524159;75.0;0.0;0.0
11:34:39.129071;262;150477;117355;129025;194795;524159;524159;75.0;0.0;0.0
11:34:39.304273;263;150664;117403;129060;194844;524159;524159;75.0;0.0;0.0
11:34:39.309813;264;150937;117450;129094;195013;524159;524159;75.0;0.0;0.0
11:34:39.309813;265;151228;117483;129111;195228;524159;524159;75.0;0.0;0.0
11:34:39.319199;266;151491;117516;129136;195449;524159;524159;75.0;0.0;0.0
11:34:39.329022;267;151728;117543;129151;195658;524159;524159;75.0;0.0;0.0
11:34:39.499208;268;151960;117567;129176;195871;524159;524159;75.0;0.0;0.0
11:34:39.518909;269;152241;117609;129196;196134;524159;524159;75.0;0.0;0.0
11:34:39.518909;270;152392;117587;129184;196263;524159;524159;75.0;0.0;0.0
11:34:39.518909;271;151676;117377;129030;195418;524159;524159;75.0;0.0;0.0
11:34:39.528862;272;150245;117125;128869;193627;524159;524159;75.0;0.0;0.0
11:34:39.699120;273;149043;117002;128802;191949;524159;524159;75.0;0.0;0.0
11:34:39.714115;274;148345;116954;128778;190797;524159;524159;75.0;0.0;0.0
11:34:39.724164;275;148085;116972;128789;190171;524159;524159;75.0;0.0;0.0
11:34:39.729215;276;148128;116991;128804;189942;524159;524159;75.0;738.8;0.0
11:34:39.734221;277;148126;116983;128802;189734;524159;524159;75.0;0.0;0.0
11:34:39.899073;278;147924;116936;128768;189309;524159;524159;75.0;0.0;0.0
11:34:39.910573;279;147704;116898;128739;188855;524159;524159;75.0;0.0;0.0
11:34:39.919077;280;147656;116893;128742;188605;524159;524159;75.0;0.0;0.0
11:34:39.919099;281;147769;116914;128764;188554;524159;524159;75.0;0.0;0.0
11:34:39.929045;282;148021;116946;128776;188691;524159;524159;75.0;0.0;0.0
11:34:40.103826;283;148302;116976;128790;188909;524159;524159;75.0;0.0;0.0
11:34:40.110422;284;148584;116994;128808;189152;524159;524159;75.0;0.0;0.0
11:34:40.118981;285;148836;117025;128822;189403;524159;524159;75.0;0.0;0.0
11:34:40.123987;286;149090;117048;128843;189652;524159;524159;75.0;0.0;0.0
11:34:40.129029;287;149371;117071;128863;189946;524159;524159;75.0;0.0;0.0
11:34:40.298987;288;149505;117046;128839;190081;524159;524159;76.0;0.0;0.0
11:34:40.310619;289;148869;116855;128702;189325;524159;524159;76.0;0.0;0.0
11:34:40.324173;290;147654;116652;128576;187792;524159;524159;76.0;0.0;0.0
11:34:40.324173;291;146703;116558;128522;186460;524159;524159;76.0;0.0;0.0
11:34:40.329257;292;146261;116534;128515;185649;524159;524159;76.0;667.1;0.0
11:34:40.498995;293;146290;116575;128544;185424;524159;524159;77.0;0.0;0.0
11:34:40.511057;294;146521;116612;128567;185503;524159;524159;77.0;0.0;0.0
11:34:40.519097;295;146593;116581;128552;185476;524159;524159;77.0;0.0;0.0
11:34:40.528781;296;146454;116540;128519;185241;524159;524159;77.0;0.0;0.0
11:34:40.528781;297;146349;116523;128512;185032;524159;524159;77.0;0.0;0.0
11:34:40.698943;298;146414;116541;128536;185013;524159;524159;77.0;0.0;0.0
11:34:40.719095;299;146637;116578;128551;185176;524159;524159;77.0;0.0;0.0
11:34:40.729154;300;146961;116622;128585;185478;524159;524159;77.0;0.0;0.0
11:34:40.740643;301;147345;116672;128621;185873;524159;524159;77.0;0.0;0.0
11:34:40.740643;302;147701;116715;128645;186277;524159;524159;77.0;0.0;0.0
11:34:40.898983;303;148033;116746;128676;186672;524159;524159;78.0;0.0;0.0
11:34:40.911576;304;148342;116780;128691;187058;524159;524159;78.0;0.0;0.0
11:34:40.919099;305;148649;116829;128731;187471;524159;524159;78.0;0.0;0.0
11:34:40.919099;306;149008;116872;128751;187924;524159;524159;78.0;0.0;0.0
11:34:40.929193;307;149151;116832;128727;188164;524159;524159;78.0;0.0;0.0
11:34:41.098959;308;148384;116601;128565;187307;524159;524159;79.0;0.0;0.0
11:34:41.111821;309;147165;116403;128437;185754;524159;524159;79.0;0.0;0.0
11:34:41.118841;310;146337;116334;128406;184549;524159;524159;79.0;707.4;0.0
11:34:41.118841;311;146024;116340;128420;183934;524159;524159;79.0;0.0;0.0
11:34:41.129253;312;146128;116385;128453;183859;524159;524159;79.0;0.0;0.0
11:34:41.298901;313;146398;116418;128479;184027;524159;524159;80.0;0.0;0.0
11:34:41.312324;314;146474;116405;128468;184066;524159;524159;80.0;0.0;0.0
11:34:41.318855;315;146378;116366;128444;183911;524159;524159;80.0;0.0;0.0
11:34:41.318855;316;146310;116373;128452;183812;524159;524159;80.0;0.0;0.0
11:34:41.328922;317;146405;116389;128459;183908;524159;524159;80.0;0.0;0.0
11:34:41.498929;318;146664;116430;128500;184172;524159;524159;80.0;0.0;0.0
11:34:41.512095;319;147001;116491;128528;184563;524159;524159;80.0;0.0;0.0
11:34:41.519126;320;147386;116542;128581;185008;524159;524159;80.0;0.0;0.0
11:34:41.519126;321;147766;116595;128619;185489;524159;524159;80.0;0.0;0.0
11:34:41.529047;322;148135;116647;128653;185977;524159;524159;80.0;0.0;0.0
11:34:41.698941;323;148499;116683;128686;186468;524159;524159;81.0;0.0;0.0
11:34:41.711922;324;148775;116695;128691;186867;524159;524159;81.0;0.0;0.0
11:34:41.718965;325;148476;116561;128593;186565;524159;524159;81.0;0.0;0.0
11:34:41.728851;326;147608;116376;128467;185504;524159;524159;81.0;0.0;0.0
11:34:41.728851;327;146834;116293;128425;184488;524159;524159;81.0;0.0;0.0
11:34:41.899044;328;146532;116292;128441;184002;524159;524159;81.0;0.0;0.0
11:34:41.912178;329;146701;116357;128484;184061;524159;524159;81.0;753.6;0.0
11:34:41.919269;330;147090;116419;128522;184438;524159;524159;81.0;0.0;0.0
11:34:41.928992;331;147346;116438;128534;184711;524159;524159;81.0;0.0;0.0
11:34:41.928992;332;147421;116415;128520;184781;524159;524159;81.0;0.0;0.0
11:34:42.112234;333;147466;116423;128522;184802;524159;524159;82.0;0.0;0.0
11:34:42.119298;334;147640;116455;128555;185000;524159;524159;82.0;0.0;0.0
11:34:42.128977;335;147913;116503;128589;185351;524159;524159;82.0;0.0;0.0
11:34:42.128977;336;148302;116566;128635;185846;524159;524159;82.0;0.0;0.0
11:34:42.139000;337;148732;116639;128690;186407;524159;524159;82.0;0.0;0.0
11:34:42.299229;338;149180;116707;128735;187010;524159;524159;82.0;0.0;0.0
11:34:42.312361;339;149599;116762;128785;187595;524159;524159;82.0;0.0;0.0
11:34:42.318884;340;149995;116816;128815;188160;524159;524159;82.0;0.0;0.0
11:34:42.328845;341;150365;116864;128853;188699;524159;524159;82.0;0.0;0.0
11:34:42.328845;342;150369;116787;128790;188808;524159;524159;82.0;0.0;0.0
11:34:42.509006;343;149588;116581;128645;187928;524159;524159;83.0;0.0;0.0
11:34:42.512581;344;148710;116452;128576;186819;524159;524159;83.0;0.0;0.0
11:34:42.519132;345;148240;116442;128571;186160;524159;524159;83.0;0.0;0.0
11:34:42.528891;346;148222;116481;128615;186015;524159;524159;83.0;0.0;0.0
11:34:42.528891;347;148549;116562;128666;186328;524159;524159;83.0;714.0;0.0
11:34:42.708963;348;148878;116605;128700;186706;524159;524159;83.0;0.0;0.0
11:34:42.719085;349;149002;116602;128691;186873;524159;524159;83.0;0.0;0.0
11:34:42.719085;350;149026;116583;128680;186931;524159;524159;83.0;0.0;0.0
11:34:42.729242;351;149125;116599;128691;187062;524159;524159;83.0;0.0;0.0
11:34:42.729242;352;149367;116648;128720;187372;524159;524159;83.0;0.0;0.0
11:34:42.908822;353;149724;116702;128766;187810;524159;524159;83.0;0.0;0.0
11:34:42.918952;354;150148;116764;128801;188373;524159;524159;83.0;0.0;0.0
11:34:42.929048;355;150595;116826;128843;188975;524159;524159;83.0;0.0;0.0
11:34:42.934054;356;151030;116880;128879;189594;524159;524159;83.0;0.0;0.0
11:34:42.939104;357;151443;116928;128921;190197;524159;524159;83.0;0.0;0.0
11:34:43.108999;358;151862;116987;128963;190775;524159;524159;84.0;0.0;0.0
11:34:43.119107;359;152277;117041;128997;191373;524159;524159;84.0;0.0;0.0
11:34:43.119107;360;152735;117105;129039;192024;524159;524159;84.0;0.0;0.0
11:34:43.128807;361;153136;117148;129073;192630;524159;524159;84.0;0.0;0.0
11:34:43.138952;362;152975;117013;128965;192592;524159;524159;84.0;0.0;0.0
11:34:43.309244;363;152143;116812;128828;191670;524159;524159;84.0;0.0;0.0
11:34:43.312764;364;151427;116725;128781;190772;524159;524159;84.0;0.0;0.0
11:34:43.318796;365;151185;116750;128808;190421;524159;524159;84.0;0.0;0.0
11:34:43.328932;366;151335;116819;128858;190532;524159;524159;84.0;749.9;0.0
11:34:43.339079;367;151712;116899;128916;190954;524159;524159;84.0;0.0;0.0
11:34:43.339079;368;151971;116930;128934;191304;524159;524159;84.0;0.0;0.0
11:34:43.713639;369;152034;116904;128923;191441;524159;524159;84.0;0.0;0.0
11:34:43.724193;370;152049;116911;128923;191501;524159;524159;84.0;0.0;0.0
11:34:43.734267;371;152173;116940;128950;191703;524159;524159;84.0;0.0;0.0
11:34:43.738817;372;152436;116998;128993;192057;524159;524159;84.0;0.0;0.0
11:34:43.743828;373;152800;117061;129039;192546;524159;524159;84.0;0.0;0.0
11:34:43.748853;374;153226;117134;129089;193119;524159;524159;84.0;0.0;0.0
11:34:43.758917;375;153666;117198;129131;193705;524159;524159;84.0;0.0;0.0
11:34:43.758917;376;154085;117261;129179;194307;524159;524159;84.0;0.0;0.0
11:34:43.768932;377;154491;117309;129214;194888;524159;524159;84.0;0.0;0.0
11:34:43.778766;378;154891;117374;129259;195453;524159;524159;84.0;0.0;0.0
11:34:44.114060;379;155319;117436;129300;196040;524159;524159;84.0;0.0;0.0
11:34:44.119287;380;155579;117433;129299;196458;524159;524159;84.0;0.0;0.0
11:34:44.129223;381;155231;117282;129185;196154;524159;524159;84.0;0.0;0.0
11:34:44.138988;382;154570;117162;129104;195409;524159;524159;84.0;0.0;0.0
11:34:44.138988;383;154194;117131;129104;194934;524159;524159;84.0;694.8;0.0
11:34:44.148942;384;154265;117206;129152;194963;524159;524159;84.0;0.0;0.0
11:34:44.158973;385;154692;117317;129239;195408;524159;524159;84.0;0.0;0.0
11:34:44.158973;386;155129;117380;129283;195919;524159;524159;84.0;0.0;0.0
11:34:44.169192;387;155331;117384;129288;196197;524159;524159;84.0;0.0;0.0
11:34:44.178769;388;155389;117381;129284;196308;524159;524159;84.0;0.0;0.0
11:34:44.514132;389;155501;117399;129297;196491;524159;524159;84.0;0.0;0.0
11:34:44.519160;390;155714;117442;129332;196779;524159;524159;84.0;0.0;0.0
11:34:44.528923;391;156050;117507;129381;197206;524159;524159;84.0;0.0;0.0
11:34:44.528923;392;156456;117587;129438;197713;524159;524159;84.0;0.0;0.0
11:34:44.538882;393;156889;117667;129504;198290;524159;524159;84.0;0.0;0.0
11:34:44.548986;394;157331;117750;129558;198881;524159;524159;84.0;0.0;0.0
11:34:44.548986;395;157769;117820;129611;199479;524159;524159;84.0;0.0;0.0
11:34:44.559000;396;158173;117881;129654;200046;524159;524159;84.0;0.0;0.0
11:34:44.568746;397;158222;117811;129600;200237;524159;524159;84.0;0.0;0.0
11:34:44.708769;398;157536;117625;129467;199527;524159;524159;84.0;0.0;0.0
11:34:44.718957;399;156711;117521;129403;198574;524159;524159;84.0;0.0;0.0
11:34:44.729190;400;156268;117520;129428;198007;524159;524159;84.0;692.8;0.0
11:34:44.729190;401;156280;117606;129495;197924;524159;524159;84.0;0.0;0.0
11:34:44.740222;402;156604;117707;129566;198219;524159;524159;84.0;0.0;0.0
11:34:44.748733;403;156891;117766;129611;198532;524159;524159;84.0;0.0;0.0
11:34:45.114155;404;156934;117759;129614;198609;524159;524159;84.0;0.0;0.0
11:34:45.119176;405;156857;117754;129616;198521;524159;524159;84.0;0.0;0.0
11:34:45.128716;406;156860;117772;129630;198516;524159;524159;84.0;0.0;0.0
11:34:45.128716;407;157015;117820;129666;198664;524159;524159;84.0;0.0;0.0
11:34:45.138771;408;157278;117884;129715;198958;524159;524159;84.0;0.0;0.0
11:34:45.148741;409;157599;117950;129762;199325;524159;524159;84.0;0.0;0.0
11:34:45.158726;410;157956;118015;129817;199736;524159;524159;84.0;0.0;0.0
11:34:45.158726;411;158312;118078;129865;200161;524159;524159;84.0;0.0;0.0
11:34:45.168788;412;158661;118125;129895;200600;524159;524159;84.0;0.0;0.0
11:34:45.178766;413;158857;118119;129891;200888;524159;524159;84.0;0.0;0.0
11:34:45.514024;414;158237;117923;129744;200269;524159;524159;84.0;0.0;0.0
11:34:45.519049;415;156944;117702;129593;198820;524159;524159;84.0;0.0;0.0
11:34:45.529083;416;155845;117609;129550;197522;524159;524159;84.0;0.0;0.0
11:34:45.529083;417;155238;117610;129563;196739;524159;524159;84.0;0.0;0.0
11:34:45.539075;418;155066;117658;129597;196451;524159;524159;84.0;0.0;0.0
11:34:45.549110;419;155169;117715;129641;196486;524159;524159;84.0;0.0;0.0
11:34:45.559066;420;155222;117729;129647;196543;524159;524159;84.0;784.8;0.0
11:34:45.559066;421;155077;117700;129626;196395;524159;524159;84.0;0.0;0.0
11:34:45.569116;422;154875;117683;129617;196176;524159;524159;84.0;0.0;0.0
11:34:45.714145;423;154788;117686;129621;196076;524159;524159;84.0;0.0;0.0
11:34:45.719193;424;154869;117726;129647;196156;524159;524159;84.0;0.0;0.0
11:34:45.728844;425;155102;117782;129687;196414;524159;524159;84.0;0.0;0.0
11:34:45.733850;426;155388;117831;129721;196766;524159;524159;84.0;0.0;0.0
11:34:45.743907;427;155686;117888;129760;197149;524159;524159;84.0;0.0;0.0
11:34:45.753979;428;155966;117924;129784;197530;524159;524159;84.0;0.0;0.0
11:34:45.909217;429;156233;117956;129806;197887;524159;524159;84.0;0.0;0.0
11:34:45.918844;430;156490;117998;129834;198224;524159;524159;84.0;0.0;0.0
11:34:45.918844;431;156781;118029;129864;198610;524159;524159;84.0;0.0;0.0
11:34:45.928877;432;157081;118066;129879;199005;524159;524159;84.0;0.0;0.0
11:34:45.938953;433;156906;117964;129803;198913;524159;524159;84.0;0.0;0.0
11:34:46.114804;434;155620;117685;129607;197554;524159;524159;84.0;0.0;0.0
11:34:46.118843;435;154029;117490;129489;195764;524159;524159;84.0;0.0;0.0
11:34:46.118843;436;152911;117422;129444;194406;524159;524159;84.0;0.0;0.0
11:34:46.129030;437;152305;117412;129446;193592;524159;524159;84.0;0.0;0.0
11:34:46.139153;438;152088;117437;129472;193232;524159;524159;83.0;742.9;0.0
11:34:46.314082;439;152054;117454;129484;193108;524159;524159;83.0;0.0;0.0
11:34:46.319160;440;151921;117432;129458;192925;524159;524159;83.0;0.0;0.0
11:34:46.324167;441;151610;117395;129429;192562;524159;524159;83.0;0.0;0.0
11:34:46.329219;442;151366;117372;129419;192254;524159;524159;83.0;0.0;0.0
11:34:46.338913;443;151309;117385;129429;192143;524159;524159;83.0;0.0;0.0
11:34:46.719013;444;151434;117422;129459;192256;524159;524159;83.0;0.0;0.0
11:34:46.719013;445;151661;117473;129486;192495;524159;524159;83.0;0.0;0.0
11:34:46.728973;446;151949;117511;129519;192819;524159;524159;83.0;0.0;0.0
11:34:46.740610;447;152204;117555;129542;193137;524159;524159;83.0;0.0;0.0
11:34:46.749183;448;152447;117582;129564;193460;524159;524159;83.0;0.0;0.0
11:34:46.749183;449;152670;117611;129578;193778;524159;524159;83.0;0.0;0.0
11:34:46.759170;450;152905;117638;129598;194115;524159;524159;83.0;0.0;0.0
11:34:46.769221;451;153182;117686;129627;194505;524159;524159;83.0;0.0;0.0
11:34:46.769221;452;153505;117737;129651;194930;524159;524159;83.0;0.0;0.0
11:34:46.778750;453;153857;117792;129692;195427;524159;524159;83.0;0.0;0.0
11:34:46.909222;454;154238;117848;129728;195943;524159;524159;83.0;0.0;0.0
11:34:46.918901;455;154621;117909;129770;196457;524159;524159;83.0;675.0;0.0
11:34:46.928933;456;155016;117966;129808;196984;524159;524159;83.0;0.0;0.0
11:34:46.928933;457;155433;118024;129847;197530;524159;524159;83.0;0.0;0.0
11:34:46.939004;458;155774;118049;129862;198018;524159;524159;83.0;0.0;0.0
11:34:47.114165;459;155283;117842;129703;197614;524159;524159;83.0;0.0;0.0
11:34:47.119243;460;153787;117539;129503;195949;524159;524159;83.0;0.0;0.0
11:34:47.128766;461;152352;117387;129410;194205;524159;524159;83.0;0.0;0.0
11:34:47.128766;462;151505;117355;129401;193040;524159;524159;83.0;0.0;0.0
11:34:47.138832;463;151132;117366;129413;192427;524159;524159;83.0;0.0;0.0
11:34:47.316060;464;151127;117397;129444;192248;524159;524159;83.0;0.0;0.0
11:34:47.319122;465;151161;117422;129452;192158;524159;524159;83.0;0.0;0.0
11:34:47.329131;466;151019;117385;129431;191910;524159;524159;83.0;0.0;0.0
11:34:47.338945;467;150749;117351;129404;191524;524159;524159;83.0;0.0;0.0
11:34:47.338945;468;150577;117341;129404;191259;524159;524159;83.0;0.0;0.0
11:34:47.718796;469;150616;117370;129427;191248;524159;524159;83.0;0.0;0.0
11:34:47.728988;470;150811;117419;129456;191428;524159;524159;83.0;0.0;0.0
11:34:47.728988;471;151085;117465;129483;191728;524159;524159;83.0;0.0;0.0
11:34:47.739217;472;151392;117510;129516;192099;524159;524159;83.0;664.7;0.0
11:34:47.749153;473;151707;117548;129541;192485;524159;524159;83.0;0.0;0.0
11:34:47.749153;474;151973;117580;129559;192824;524159;524159;83.0;0.0;0.0
11:34:47.758698;475;152244;117611;129585;193144;524159;524159;83.0;0.0;0.0
11:34:47.768754;476;152533;117648;129604;193501;524159;524159;83.0;0.0;0.0
11:34:47.778757;477;152855;117689;129627;193893;524159;524159;83.0;0.0;0.0
11:34:47.778757;478;153221;117747;129677;194330;524159;524159;83.0;0.0;0.0
11:34:47.909085;479;153603;117803;129713;194806;524159;524159;83.0;0.0;0.0
11:34:47.918958;480;154025;117860;129752;195335;524159;524159;83.0;0.0;0.0
11:34:47.929164;481;154446;117918;129796;195863;524159;524159;83.0;0.0;0.0
11:34:47.938912;482;154867;117983;129837;196397;524159;524159;83.0;0.0;0.0
11:34:47.948883;483;155316;118044;129876;196978;524159;524159;83.0;0.0;0.0
11:34:48.113756;484;155716;118087;129902;197511;524159;524159;83.0;0.0;0.0
11:34:48.118808;485;155491;117919;129773;197330;524159;524159;83.0;0.0;0.0
11:34:48.129150;486;154336;117650;129577;195989;524159;524159;83.0;0.0;0.0
11:34:48.129150;487;153175;117499;129500;194497;524159;524159;83.0;0.0;0.0
11:34:48.143816;488;152538;117475;129492;193550;524159;524159;83.0;0.0;0.0
11:34:48.316079;489;152355;117506;129517;193147;524159;524159;83.0;0.0;0.0
11:34:48.319174;490;152491;117566;129557;193155;524159;524159;83.0;0.0;0.0
11:34:48.329071;491;152668;117594;129589;193246;524159;524159;83.0;0.0;0.0
11:34:48.338949;492;152678;117580;129564;193180;524159;524159;83.0;781.2;0.0
11:34:48.338949;493;152534;117543;129544;192953;524159;524159;83.0;0.0;0.0
11:34:48.718802;494;152469;117543;129549;192795;524159;524159;83.0;0.0;0.0
11:34:48.728935;495;152545;117571;129572;192813;524159;524159;83.0;0.0;0.0
11:34:48.728935;496;152758;117622;129606;193037;524159;524159;83.0;0.0;0.0
11:34:48.741214;497;153093;117686;129640;193390;524159;524159;83.0;0.0;0.0
11:34:48.748750;498;153452;117745;129683;193799;524159;524159;83.0;0.0;0.0
11:34:48.748750;499;153804;117789;129715;194216;524159;524159;83.0;0.0;0.0
11:34:48.758926;500;154136;117832;129740;194621;524159;524159;83.0;0.0;0.0
11:34:48.768905;501;154435;117857;129767;195013;524159;524159;83.0;0.0;0.0
11:34:48.778844;502;154730;117895;129788;195405;524159;524159;83.0;0.0;0.0
11:34:48.778844;503;155069;117944;129822;195841;524159;524159;83.0;0.0;0.0
11:34:48.919000;504;155432;118006;129866;196298;524159;524159;83.0;0.0;0.0
11:34:48.928762;505;155837;118051;129900;196802;524159;524159;83.0;0.0;0.0
11:34:48.939174;506;156255;118119;129942;197336;524159;524159;83.0;0.0;0.0
11:34:48.943680;507;156689;118189;129994;197884;524159;524159;83.0;0.0;0.0
11:34:48.943680;508;157131;118252;130029;198443;524159;524159;83.0;0.0;0.0
11:34:49.117006;509;157558;118313;130082;199001;524159;524159;83.0;0.0;0.0
11:34:49.124062;510;157725;118265;130031;199286;524159;524159;83.0;0.0;0.0
11:34:49.129100;511;156985;118015;129849;198434;524159;524159;83.0;0.0;0.0
11:34:49.138911;512;155920;117820;129733;197048;524159;524159;83.0;0.0;0.0
11:34:49.143918;513;155245;117768;129709;196035;524159;524159;83.0;0.0;0.0
11:34:49.317207;514;155023;117795;129731;195534;524159;524159;83.0;0.0;0.0
11:34:49.323759;515;155134;117851;129771;195481;524159;524159;83.0;0.0;0.0
11:34:49.328804;516;155408;117914;129816;195666;524159;524159;83.0;0.0;0.0
11:34:49.338852;517;155534;117919;129815;195764;524159;524159;83.0;0.0;0.0
11:34:49.343859;518;155479;117883;129792;195637;524159;524159;83.0;1023.7;0.0
11:34:49.517618;519;155406;117882;129789;195462;524159;524159;83.0;0.0;0.0
11:34:49.519154;520;155448;117894;129801;195441;524159;524159;83.0;0.0;0.0
11:34:49.528768;521;155653;117944;129839;195617;524159;524159;83.0;0.0;0.0
11:34:49.538720;522;155955;118005;129883;195948;524159;524159;83.0;0.0;0.0
11:34:49.538720;523;156297;118064;129927;196344;524159;524159;83.0;0.0;0.0
11:34:49.717867;524;156661;118111;129961;196784;524159;524159;83.0;0.0;0.0
11:34:49.728987;525;156995;118160;129988;197210;524159;524159;83.0;0.0;0.0
11:34:49.739062;526;157318;118198;130013;197607;524159;524159;83.0;0.0;0.0
11:34:49.744068;527;157612;118234;130040;197978;524159;524159;83.0;0.0;0.0
11:34:49.749090;528;157933;118283;130069;198373;524159;524159;83.0;0.0;0.0
11:34:49.917882;529;158286;118324;130106;198810;524159;524159;83.0;0.0;0.0
11:34:49.923922;530;158676;118386;130141;199289;524159;524159;83.0;0.0;0.0
11:34:49.933997;531;159066;118448;130188;199791;524159;524159;83.0;0.0;0.0
11:34:49.939032;532;159494;118507;130236;200342;524159;524159;83.0;0.0;0.0
11:34:49.948770;533;159912;118576;130277;200914;524159;524159;83.0;0.0;0.0
11:34:50.118883;534;160081;118522;130237;201196;524159;524159;83.0;0.0;0.0
11:34:50.118883;535;159416;118290;130070;200442;524159;524159;83.0;0.0;0.0
11:34:50.128946;536;158416;118109;129956;199162;524159;524159;83.0;0.0;0.0
11:34:50.138934;537;157773;118070;129931;198227;524159;524159;83.0;0.0;0.0
11:34:50.148837;538;157551;118089;129959;197771;524159;524159;83.0;0.0;0.0
11:34:50.319235;539;157654;118154;130005;197758;524159;524159;83.0;0.0;0.0
11:34:50.328815;540;157909;118219;130047;197981;524159;524159;83.0;0.0;0.0
11:34:50.333822;541;158022;118221;130049;198073;524159;524159;83.0;0.0;0.0
11:34:50.338882;542;157960;118185;130025;197943;524159;524159;83.0;0.0;0.0
11:34:50.349054;543;157840;118181;130013;197762;524159;524159;83.0;0.0;0.0
11:34:50.519082;544;157861;118201;130033;197742;524159;524159;83.0;1042.5;0.0
11:34:50.529215;545;158021;118240;130063;197904;524159;524159;83.0;0.0;0.0
11:34:50.529215;546;158291;118305;130109;198200;524159;524159;83.0;0.0;0.0
11:34:50.539148;547;158618;118366;130150;198581;524159;524159;83.0;0.0;0.0
11:34:50.548740;548;158960;118416;130184;198999;524159;524159;83.0;0.0;97.0
11:34:50.718835;549;159266;118452;130217;199400;524159;524159;83.0;0.0;97.0
11:34:50.728867;550;159551;118497;130233;199794;524159;524159;83.0;0.0;97.0
11:34:50.728867;551;159824;118528;130261;200182;524159;524159;83.0;0.0;97.0
11:34:50.740341;552;160098;118566;130292;200564;524159;524159;83.0;0.0;97.0
11:34:50.748857;553;160397;118617;130321;200990;524159;524159;83.0;0.0;97.0
11:34:50.918859;554;160744;118669;130359;201449;524159;524159;83.0;0.0;97.0
11:34:50.928942;555;161111;118727;130405;201935;524159;524159;83.0;0.0;97.0
11:34:50.928942;556;161496;118785;130449;202463;524159;524159;83.0;0.0;97.0
11:34:50.939097;557;161907;118855;130489;203026;524159;524159;83.0;0.0;97.0
11:34:50.948753;558;162086;118817;130460;203332;524159;524159;82.0;0.0;97.0
11:34:51.118955;559;161461;118593;130297;202658;524159;524159;82.0;0.0;97.0
11:34:51.128997;560;160426;118392;130153;201370;524159;524159;82.0;0.0;97.0
11:34:51.134004;561;159671;118328;130131;200343;524159;524159;82.0;0.0;97.0
11:34:51.139056;562;159393;118354;130152;199860;524159;524159;82.0;0.0;97.0
11:34:51.149060;563;159445;118400;130188;199802;524159;524159;82.0;0.0;97.0
11:34:51.319128;564;159665;118468;130226;199960;524159;524159;82.0;0.0;97.0
11:34:51.329191;565;159763;118476;130229;200031;524159;524159;82.0;0.0;97.0
11:34:51.329191;566;159671;118433;130198;199876;524159;524159;82.0;0.0;97.0
11:34:51.338794;567;159543;118413;130182;199671;524159;524159;82.0;0.0;97.0
11:34:51.348804;568;159540;118424;130196;199617;524159;524159;82.0;0.0;97.0
11:34:51.519016;569;159687;118461;130225;199743;524159;524159;82.0;1014.3;97.0
11:34:51.533785;570;159937;118518;130258;200007;524159;524159;82.0;0.0;97.0
11:34:51.538817;571;160248;118576;130304;200380;524159;524159;82.0;0.0;97.0
11:34:51.543823;572;160563;118617;130334;200797;524159;524159;82.0;0.0;97.0
11:34:51.548863;573;160854;118656;130363;201202;524159;524159;82.0;0.0;96.9
11:34:51.719389;574;161136;118687;130383;201604;524159;524159;82.0;0.0;96.9
11:34:51.729054;575;161382;118715;130403;201972;524159;524159;82.0;0.0;96.9
11:34:51.739098;576;161655;118753;130425;202357;524159;524159;82.0;0.0;96.9
11:34:51.739098;577;161953;118799;130456;202771;524159;524159;82.0;0.0;96.9
11:34:51.749200;578;162281;118845;130496;203243;524159;524159;82.0;0.0;96.9
11:34:51.920768;579;162642;118902;130534;203763;524159;524159;82.0;0.0;96.9
11:34:51.927581;580;163041;118965;130573;204306;524159;524159;82.0;0.0;96.9
11:34:51.935382;581;163402;119008;130611;204822;524159;524159;82.0;0.0;96.9
11:34:51.942679;582;163310;118889;130511;204824;524159;524159;82.0;0.0;96.9
11:34:51.949580;583;162430;118645;130338;203848;524159;524159;82.0;0.0;96.9
11:34:52.121397;584;161472;118515;130266;202695;524159;524159;82.0;0.0;96.9
11:34:52.129404;585;160950;118498;130264;202004;524159;524159;82.0;0.0;96.9
11:34:52.138400;586;160823;118537;130297;201782;524159;524159;82.0;0.0;96.9
11:34:52.148392;587;160983;118604;130346;201936;524159;524159;82.0;0.0;96.9
11:34:52.156388;588;161175;118645;130375;202142;524159;524159;81.0;0.0;96.9
11:34:52.321392;589;161151;118621;130353;202136;524159;524159;81.0;0.0;96.9
11:34:52.328396;590;160989;118582;130329;201957;524159;524159;81.0;0.0;96.9
11:34:52.336393;591;160870;118576;130326;201809;524159;524159;81.0;0.0;96.9
11:34:52.343389;592;160894;118598;130351;201830;524159;524159;81.0;0.0;96.9
11:34:52.353473;593;161059;118651;130393;202022;524159;524159;81.0;961.3;96.9
11:34:52.522702;594;161319;118703;130432;202329;524159;524159;81.0;0.0;96.9
11:34:52.531697;595;161612;118758;130468;202709;524159;524159;81.0;0.0;96.9
11:34:52.535692;596;161895;118796;130488;203073;524159;524159;81.0;0.0;96.9
11:34:52.543399;597;162156;118831;130520;203421;524159;524159;81.0;0.0;96.9
11:34:52.550573;598;162381;118861;130540;203744;524159;524159;81.0;0.0;97.0
11:34:52.721386;599;162623;118902;130567;204087;524159;524159;81.0;0.0;97.0
11:34:52.729396;600;162904;118956;130608;204489;524159;524159;81.0;0.0;97.0
11:34:52.736393;601;163173;118978;130627;204869;524159;524159;81.0;0.0;97.0
11:34:52.743492;602;163004;118868;130548;204735;524159;524159;81.0;0.0;97.0
11:34:52.751575;603;162261;118696;130419;203882;524159;524159;81.0;0.0;97.0
11:34:52.922403;604;161540;118596;130364;202998;524159;524159;81.0;0.0;97.0
11:34:52.929394;605;161175;118596;130371;202508;524159;524159;81.0;0.0;97.0
11:34:52.937393;606;161220;118658;130419;202485;524159;524159;81.0;0.0;97.0
11:34:52.944388;607;161481;118731;130467;202759;524159;524159;81.0;0.0;97.0
11:34:52.952382;608;161629;118750;130482;202936;524159;524159;80.0;0.0;97.0
11:34:53.122403;609;161533;118728;130469;202845;524159;524159;80.0;0.0;97.0
11:34:53.129398;610;161361;118703;130456;202686;524159;524159;80.0;0.0;97.0
11:34:53.137244;611;161297;118714;130475;202635;524159;524159;80.0;0.0;97.0
11:34:53.145025;612;161376;118761;130502;202735;524159;524159;80.0;0.0;97.0
11:34:53.152576;613;161580;118807;130531;202978;524159;524159;80.0;0.0;97.0
11:34:53.329625;614;161848;118858;130575;203306;524159;524159;80.0;0.0;97.0
11:34:53.341567;615;162124;118903;130614;203658;524159;524159;80.0;0.0;97.0
11:34:53.345562;616;162400;118956;130639;204024;524159;524159;80.0;0.0;97.0
11:34:53.348560;617;162668;119000;130674;204393;524159;524159;80.0;962.8;97.0
11:34:53.352873;618;162903;119034;130698;204757;524159;524159;80.0;0.0;97.0
11:34:53.523361;619;162830;118949;130627;204766;524159;524159;80.0;0.0;97.0
11:34:53.530357;620;162025;118733;130483;203822;524159;524159;80.0;0.0;97.0
11:34:53.538352;621;160994;118585;130388;202552;524159;524159;80.0;0.0;97.0
11:34:53.546348;622;160300;118546;130368;201635;524159;524159;80.0;0.0;97.0
11:34:53.553342;623;160074;118572;130398;201247;524159;524159;79.0;0.0;96.6
11:34:53.722574;624;160214;118647;130452;201289;524159;524159;79.0;0.0;96.6
11:34:53.730565;625;160372;118679;130472;201399;524159;524159;79.0;0.0;96.6
11:34:53.738561;626;160294;118651;130462;201268;524159;524159;79.0;0.0;96.6
11:34:53.745598;627;160031;118611;130428;200929;524159;524159;79.0;0.0;96.6
11:34:53.752387;628;159832;118603;130434;200644;524159;524159;79.0;0.0;96.6
11:34:53.923281;629;159804;118626;130445;200569;524159;524159;79.0;0.0;96.6
11:34:53.931277;630;159913;118665;130476;200650;524159;524159;79.0;0.0;96.6
11:34:53.939382;631;160107;118726;130525;200864;524159;524159;79.0;0.0;96.6
11:34:53.946521;632;160354;118782;130574;201156;524159;524159;79.0;0.0;96.6
11:34:53.953438;633;160602;118837;130606;201438;524159;524159;78.0;0.0;96.6
11:34:54.126473;634;160833;118863;130636;201707;524159;524159;78.0;0.0;96.6
11:34:54.139466;635;160977;118876;130637;201878;524159;524159;78.0;0.0;96.6
11:34:54.152456;636;160438;118708;130516;201254;524159;524159;78.0;0.0;96.6
11:34:54.156453;637;159165;118475;130361;199652;524159;524159;78.0;0.0;96.6
11:34:54.158451;638;157899;118330;130288;198021;524159;524159;78.0;0.0;96.6
11:34:54.324380;639;157085;118297;130275;196916;524159;524159;78.0;0.0;96.6
11:34:54.331377;640;156711;118314;130293;196326;524159;524159;78.0;943.5;96.6
11:34:54.338372;641;156665;118355;130311;196129;524159;524159;78.0;0.0;96.6
11:34:54.346367;642;156556;118347;130318;195915;524159;524159;78.0;0.0;96.6
11:34:54.355362;643;156241;118290;130280;195482;524159;524159;77.0;0.0;96.6
11:34:54.525392;644;155846;118232;130247;194921;524159;524159;77.0;0.0;96.6
11:34:54.536385;645;155600;118220;130246;194525;524159;524159;77.0;0.0;96.6
11:34:54.543380;646;155540;118240;130252;194386;524159;524159;77.0;0.0;96.6
11:34:54.547376;647;155594;118271;130265;194415;524159;524159;77.0;0.0;96.6
11:34:54.554403;648;155727;118289;130293;194554;524159;524159;77.0;0.0;96.4
11:34:54.725373;649;155868;118313;130303;194713;524159;524159;77.0;0.0;96.4
11:34:54.733367;650;155996;118318;130308;194861;524159;524159;77.0;0.0;96.4
11:34:54.747360;651;156105;118337;130318;194974;524159;524159;77.0;0.0;96.4
11:34:54.754354;652;156222;118347;130322;195108;524159;524159;77.0;0.0;96.4
11:34:54.758353;653;156200;118303;130286;195077;524159;524159;76.0;0.0;96.4
11:34:54.930645;654;155236;118042;130113;193898;524159;524159;76.0;0.0;96.4
11:34:54.943635;655;153595;117766;129924;191803;524159;524159;76.0;0.0;96.4
11:34:54.955631;656;152136;117586;129815;189842;524159;524159;76.0;0.0;96.4
11:34:54.961627;657;151126;117483;129761;188392;524159;524159;76.0;0.0;96.4
11:34:54.964622;658;150510;117433;129729;187444;524159;524159;75.0;0.0;96.4
11:34:55.124393;659;150205;117419;129722;186916;524159;524159;75.0;0.0;96.4
11:34:55.131593;660;149937;117376;129686;186446;524159;524159;75.0;792.2;96.4
11:34:55.139556;661;149532;117299;129637;185852;524159;524159;75.0;0.0;96.4
11:34:55.146713;662;149122;117232;129596;185261;524159;524159;75.0;0.0;96.4
11:34:55.154560;663;148868;117197;129569;184856;524159;524159;75.0;0.0;96.4
11:34:55.331515;664;148821;117201;129570;184724;524159;524159;75.0;0.0;96.4
11:34:55.344507;665;148915;117215;129570;184787;524159;524159;75.0;0.0;96.4
11:34:55.353498;666;149061;117226;129581;184948;524159;524159;75.0;0.0;96.4
11:34:55.356496;667;149202;117236;129582;185142;524159;524159;75.0;0.0;96.4
11:34:55.359514;668;149358;117240;129584;185351;524159;524159;74.0;0.0;96.4
11:34:55.525220;669;149516;117244;129585;185561;524159;524159;74.0;0.0;96.4
11:34:55.533370;670;149689;117259;129587;185801;524159;524159;74.0;0.0;96.4
11:34:55.541370;671;149904;117280;129605;186094;524159;524159;74.0;0.0;96.4
11:34:55.555364;672;150163;117312;129623;186457;524159;524159;74.0;0.0;96.4
11:34:55.563355;673;150459;117345;129648;186882;524159;524159;74.0;0.0;96.2
11:34:55.726328;674;150786;117387;129668;187352;524159;524159;74.0;0.0;96.2
11:34:55.739318;675;151127;117426;129701;187839;524159;524159;74.0;0.0;96.2
11:34:55.744314;676;151457;117467;129727;188329;524159;524159;74.0;0.0;96.2
11:34:55.748313;677;151808;117513;129747;188832;524159;524159;74.0;697.4;96.2
11:34:55.755378;678;152190;117546;129772;189355;524159;524159;73.0;0.0;96.2
11:34:55.925375;679;152577;117595;129804;189894;524159;524159;73.0;0.0;96.2
11:34:55.933370;680;152989;117646;129841;190450;524159;524159;73.0;0.0;96.2
11:34:55.941554;681;153374;117684;129859;190989;524159;524159;73.0;0.0;96.2
11:34:55.948554;682;153162;117505;129726;190819;524159;524159;73.0;0.0;96.2
11:34:55.955380;683;151746;117131;129471;189072;524159;524159;73.0;0.0;96.2
11:34:56.125378;684;150101;116855;129298;186872;524159;524159;73.0;0.0;96.2
11:34:56.133374;685;148910;116708;129209;185141;524159;524159;73.0;0.0;96.2
11:34:56.140371;686;148125;116625;129156;183898;524159;524159;73.0;0.0;96.2
11:34:56.147365;687;147672;116581;129134;183138;524159;524159;73.0;0.0;96.2
11:34:56.155359;688;147477;116572;129128;182738;524159;524159;73.0;0.0;96.2
11:34:56.326896;689;147234;116522;129099;182341;524159;524159;73.0;0.0;96.2
11:34:56.333892;690;146894;116453;129050;181848;524159;524159;73.0;0.0;96.2
11:34:56.341887;691;146643;116405;129021;181449;524159;524159;73.0;0.0;96.2
11:34:56.347883;692;146554;116400;129024;181292;524159;524159;73.0;0.0;96.2
11:34:56.355878;693;146646;116423;129036;181388;524159;524159;72.0;0.0;96.2
11:34:56.526646;694;146837;116447;129052;181619;524159;524159;72.0;671.0;96.2
11:34:56.534642;695;147076;116462;129060;181934;524159;524159;72.0;0.0;96.2
11:34:56.541637;696;147329;116469;129072;182277;524159;524159;72.0;0.0;96.2
11:34:56.548633;697;147565;116487;129068;182608;524159;524159;72.0;0.0;96.2
11:34:56.555629;698;147821;116492;129074;182966;524159;524159;72.0;0.0;96.1
11:34:56.727167;699;148115;116509;129071;183352;524159;524159;72.0;0.0;96.1
11:34:56.734672;700;148458;116540;129090;183794;524159;524159;72.0;0.0;96.1
11:34:56.742667;701;148834;116583;129113;184306;524159;524159;72.0;0.0;96.1
11:34:56.751665;702;149256;116616;129138;184863;524159;524159;72.0;0.0;96.1
11:34:56.759658;703;149701;116663;129165;185450;524159;524159;72.0;0.0;96.1
11:34:56.926697;704;150136;116720;129195;186046;524159;524159;72.0;0.0;96.1
11:34:56.934349;705;150577;116779;129240;186644;524159;524159;72.0;0.0;96.1
11:34:56.941578;706;151019;116842;129283;187253;524159;524159;72.0;0.0;96.1
11:34:56.948521;707;151467;116924;129355;187876;524159;524159;72.0;0.0;96.1
11:34:56.955512;708;151836;116957;129383;188449;524159;524159;72.0;0.0;96.1
11:34:57.126406;709;151469;116769;129237;188089;524159;524159;72.0;0.0;96.1
11:34:57.134972;710;150284;116488;129057;186594;524159;524159;72.0;0.0;96.1
11:34:57.141384;711;149150;116324;128970;185107;524159;524159;72.0;0.0;96.1
11:34:57.149693;712;148474;116255;128935;184108;524159;524159;72.0;713.8;96.1
11:34:57.156747;713;148151;116234;128921;183578;524159;524159;72.0;0.0;96.1
11:34:57.332424;714;148136;116249;128942;183461;524159;524159;72.0;0.0;96.1
11:34:57.342416;715;148201;116265;128941;183510;524159;524159;72.0;0.0;96.1
11:34:57.352410;716;148147;116230;128912;183457;524159;524159;72.0;0.0;96.1
11:34:57.360405;717;148034;116195;128887;183326;524159;524159;72.0;0.0;96.1
11:34:57.364401;718;148023;116196;128892;183295;524159;524159;72.0;0.0;96.1
11:34:57.528693;719;148186;116227;128913;183483;524159;524159;72.0;0.0;96.1
11:34:57.536358;720;148496;116272;128943;183862;524159;524159;72.0;0.0;96.1
11:34:57.543359;721;148852;116325;128977;184339;524159;524159;72.0;0.0;96.1
11:34:57.550743;722;149228;116363;129009;184863;524159;524159;72.0;0.0;96.1
11:34:57.557544;723;149589;116403;129031;185365;524159;524159;72.0;0.0;95.9
11:34:57.728360;724;149918;116435;129052;185874;524159;524159;72.0;0.0;95.9
11:34:57.736357;725;150258;116479;129077;186382;524159;524159;72.0;0.0;95.9
11:34:57.743309;726;150640;116522;129104;186932;524159;524159;72.0;0.0;95.9
11:34:57.752308;727;151052;116571;129144;187516;524159;524159;72.0;0.0;95.9
11:34:57.757261;728;151511;116627;129185;188154;524159;524159;72.0;0.0;95.9
11:34:57.927742;729;151983;116704;129227;188826;524159;524159;72.0;0.0;95.9
11:34:57.935662;730;152469;116768;129277;189520;524159;524159;72.0;0.0;95.9
11:34:57.942538;731;152960;116830;129319;190234;524159;524159;72.0;0.0;95.9
11:34:57.949537;732;153451;116903;129370;190959;524159;524159;72.0;0.0;95.9
11:34:57.957539;733;153954;116970;129407;191710;524159;524159;72.0;0.0;95.9
11:34:58.129102;734;154426;117015;129446;192424;524159;524159;72.0;0.0;95.9
11:34:58.137093;735;154367;116875;129326;192496;524159;524159;72.0;0.0;95.9
11:34:58.145087;736;153524;116601;129149;191512;524159;524159;72.0;0.0;95.9
11:34:58.151084;737;152640;116465;129054;190379;524159;524159;72.0;0.0;95.9
11:34:58.159081;738;152154;116428;129043;189683;524159;524159;73.0;0.0;95.9
11:34:58.328360;739;152042;116454;129061;189447;524159;524159;73.0;0.0;95.9
11:34:58.335969;740;152187;116500;129096;189561;524159;524159;73.0;0.0;95.9
11:34:58.344206;741;152407;116537;129128;189815;524159;524159;73.0;1136.1;95.9
11:34:58.351391;742;152492;116528;129114;189967;524159;524159;73.0;0.0;95.9
11:34:58.358385;743;152455;116505;129109;189968;524159;524159;73.0;0.0;95.9
11:34:58.530662;744;152507;116519;129111;190046;524159;524159;73.0;0.0;95.9
11:34:58.536352;745;152698;116565;129140;190321;524159;524159;73.0;0.0;95.9
11:34:58.544346;746;153013;116630;129187;190755;524159;524159;73.0;0.0;95.9
11:34:58.551656;747;153395;116694;129231;191282;524159;524159;73.0;0.0;95.9
11:34:58.558306;748;153805;116758;129278;191867;524159;524159;73.0;0.0;95.8
11:34:58.730241;749;154205;116819;129319;192457;524159;524159;73.0;0.0;95.8
11:34:58.736751;750;154580;116857;129351;193021;524159;524159;73.0;0.0;95.8
11:34:58.744746;751;154922;116903;129381;193568;524159;524159;73.0;0.0;95.8
11:34:58.752741;752;155287;116957;129426;194133;524159;524159;73.0;0.0;95.8
11:34:58.759738;753;155666;117019;129458;194724;524159;524159;74.0;0.0;95.8
11:34:58.929536;754;156090;117097;129515;195357;524159;524159;74.0;0.0;95.8
11:34:58.937083;755;156537;117164;129567;196011;524159;524159;74.0;0.0;95.8
11:34:58.944305;756;157023;117244;129627;196720;524159;524159;74.0;0.0;95.8
11:34:58.951346;757;157411;117272;129643;197321;524159;524159;74.0;0.0;95.8
11:34:58.958534;758;157209;117115;129523;197195;524159;524159;74.0;0.0;95.8
11:34:59.130352;759;156510;116939;129408;196385;524159;524159;74.0;0.0;95.8
11:34:59.137353;760;155950;116878;129373;195691;524159;524159;74.0;0.0;95.8
11:34:59.149345;761;155772;116900;129404;195429;524159;524159;74.0;0.0;95.8
11:34:59.156342;762;155949;116979;129461;195606;524159;524159;74.0;0.0;95.8
11:34:59.161342;763;156291;117065;129522;196034;524159;524159;74.0;0.0;95.8
11:34:59.330343;764;156541;117088;129535;196379;524159;524159;74.0;0.0;95.8
11:34:59.338337;765;156617;117075;129525;196510;524159;524159;74.0;0.0;95.8
11:34:59.346136;766;156653;117079;129528;196579;524159;524159;74.0;0.0;95.8
11:34:59.354304;767;156791;117115;129554;196780;524159;524159;74.0;0.0;95.8
11:34:59.361305;768;157065;117169;129603;197133;524159;524159;74.0;1067.3;95.8
11:34:59.537611;769;157419;117245;129654;197608;524159;524159;74.0;0.0;95.8
11:34:59.551602;770;157808;117326;129706;198150;524159;524159;74.0;0.0;95.8
11:34:59.555599;771;158201;117393;129754;198712;524159;524159;74.0;0.0;95.8
11:34:59.559597;772;158592;117453;129802;199275;524159;524159;74.0;0.0;95.8
11:34:59.562595;773;158944;117500;129834;199794;524159;524159;74.0;0.0;95.7
11:34:59.731340;774;159298;117561;129870;200315;524159;524159;74.0;0.0;95.7
11:34:59.738350;775;159658;117617;129923;200828;524159;524159;74.0;0.0;95.7
11:34:59.747344;776;160067;117706;129980;201411;524159;524159;74.0;0.0;95.7
11:34:59.755340;777;160471;117768;130026;202000;524159;524159;74.0;0.0;95.7
11:34:59.764333;778;160537;117702;129959;202189;524159;524159;75.0;0.0;95.7
11:34:59.935628;779;159864;117481;129812;201435;524159;524159;75.0;0.0;95.7
11:34:59.945621;780;159063;117360;129735;200484;524159;524159;75.0;0.0;95.7
11:34:59.950616;781;158611;117353;129745;199891;524159;524159;75.0;0.0;95.7
11:34:59.955614;782;158526;117404;129791;199710;524159;524159;75.0;0.0;95.7
11:34:59.960189;783;158738;117488;129858;199899;524159;524159;75.0;0.0;95.7
11:35:00.131995;784;158987;117553;129900;200169;524159;524159;75.0;0.0;95.7
11:35:00.138991;785;159066;117547;129901;200273;524159;524159;75.0;0.0;95.7
11:35:00.146353;786;158990;117541;129892;200215;524159;524159;75.0;0.0;95.7
11:35:00.154344;787;158966;117552;129907;200199;524159;524159;75.0;0.0;95.7
11:35:00.161525;788;159097;117614;129951;200366;524159;524159;75.0;0.0;95.7
11:35:00.331341;789;159348;117676;130002;200685;524159;524159;75.0;0.0;95.7
11:35:00.339345;790;159645;117748;130062;201082;524159;524159;75.0;0.0;95.7
11:35:00.346346;791;159980;117821;130107;201519;524159;524159;75.0;0.0;95.7
11:35:00.354345;792;160317;117889;130151;201959;524159;524159;75.0;0.0;95.7
11:35:00.361348;793;160635;117943;130194;202383;524159;524159;75.0;0.0;95.7
11:35:00.533345;794;160955;117984;130228;202801;524159;524159;75.0;1043.5;95.7
11:35:00.542339;795;161221;118019;130240;203159;524159;524159;75.0;0.0;95.7
11:35:00.551331;796;160964;117885;130148;202905;524159;524159;75.0;0.0;95.7
11:35:00.558327;797;160015;117661;129992;201792;524159;524159;75.0;0.0;95.7
11:35:00.565322;798;159040;117546;129924;200578;524159;524159;75.0;0.0;95.6
11:35:00.732339;799;158458;117535;129921;199790;524159;524159;75.0;0.0;95.6
11:35:00.739339;800;158226;117573;129951;199414;524159;524159;75.0;0.0;95.6
11:35:00.747334;801;158309;117629;129990;199436;524159;524159;75.0;0.0;95.6
11:35:00.755424;802;158400;117658;130018;199491;524159;524159;75.0;0.0;95.6
11:35:00.762347;803;158345;117641;130005;199398;524159;524159;75.0;0.0;95.6
11:35:00.933332;804;158189;117624;129996;199169;524159;524159;75.0;0.0;95.6
11:35:00.940841;805;158103;117631;129998;199029;524159;524159;75.0;0.0;95.6
11:35:00.948341;806;158185;117675;130030;199069;524159;524159;75.0;0.0;95.6
11:35:00.956335;807;158379;117728;130065;199267;524159;524159;75.0;0.0;95.6
11:35:00.964358;808;158647;117792;130112;199569;524159;524159;75.0;0.0;95.6
11:35:01.132343;809;158957;117840;130151;199935;524159;524159;75.0;0.0;95.6
11:35:01.139830;810;159245;117899;130181;200305;524159;524159;75.0;0.0;95.6
11:35:01.151829;811;159524;117939;130205;200692;524159;524159;75.0;0.0;95.6
11:35:01.161817;812;159773;117979;130236;201047;524159;524159;75.0;0.0;95.6
11:35:01.167813;813;160052;118024;130262;201420;524159;524159;75.0;0.0;95.6
11:35:01.334447;814;160365;118073;130288;201835;524159;524159;75.0;0.0;95.6
11:35:01.344442;815;160700;118132;130333;202284;524159;524159;75.0;0.0;95.6
11:35:01.351439;816;161065;118200;130376;202761;524159;524159;75.0;904.0;95.6
11:35:01.355436;817;161450;118256;130407;203268;524159;524159;75.0;0.0;95.6
11:35:01.363517;818;161492;118181;130357;203389;524159;524159;75.0;0.0;95.6
11:35:01.534741;819;160413;117870;130121;202150;524159;524159;75.0;0.0;95.6
11:35:01.543741;820;158863;117628;129966;200248;524159;524159;75.0;0.0;95.6
11:35:01.553735;821;157575;117516;129916;198566;524159;524159;75.0;0.0;95.6
11:35:01.561724;822;156755;117486;129906;197384;524159;524159;75.0;0.0;95.6
11:35:01.564721;823;156292;117493;129901;196639;524159;524159;75.0;0.0;95.6
11:35:01.733336;824;156143;117508;129921;196266;524159;524159;75.0;0.0;95.6
11:35:01.740334;825;155986;117508;129919;195949;524159;524159;75.0;0.0;95.6
11:35:01.748338;826;155725;117473;129883;195504;524159;524159;75.0;0.0;95.6
11:35:01.755329;827;155422;117430;129858;195012;524159;524159;75.0;0.0;95.6
11:35:01.762478;828;155260;117432;129851;194721;524159;524159;75.0;0.0;95.6
11:35:01.934369;829;155276;117468;129881;194637;524159;524159;75.0;0.0;95.6
11:35:01.942337;830;155451;117516;129914;194744;524159;524159;75.0;0.0;95.6
11:35:01.953324;831;155688;117555;129946;194959;524159;524159;75.0;0.0;95.6
11:35:01.958324;832;155964;117600;129963;195227;524159;524159;75.0;0.0;95.6
11:35:01.965320;833;156226;117637;129987;195498;524159;524159;76.0;0.0;95.6
11:35:02.133587;834;156454;117670;130003;195771;524159;524159;76.0;0.0;95.6
11:35:02.141582;835;156681;117700;130026;196061;524159;524159;76.0;0.0;95.6
11:35:02.151582;836;156941;117733;130051;196399;524159;524159;76.0;817.6;95.6
11:35:02.158572;837;157251;117791;130086;196783;524159;524159;76.0;0.0;95.6
11:35:02.165333;838;157596;117845;130117;197218;524159;524159;76.0;0.0;95.6
11:35:02.341711;839;157959;117907;130158;197680;524159;524159;76.0;0.0;95.6
11:35:02.347644;840;158337;117959;130199;198188;524159;524159;76.0;0.0;95.6
11:35:02.354640;841;158727;118034;130239;198717;524159;524159;76.0;0.0;95.6
11:35:02.360635;842;159105;118086;130283;199243;524159;524159;76.0;0.0;95.6
11:35:02.364635;843;159506;118150;130316;199812;524159;524159;76.0;0.0;95.6
11:35:02.534332;844;159870;118185;130341;200327;524159;524159;76.0;0.0;95.6
11:35:02.542329;845;159519;117986;130194;200018;524159;524159;76.0;0.0;95.6
11:35:02.549331;846;158129;117669;129970;198398;524159;524159;76.0;0.0;95.6
11:35:02.556326;847;156636;117484;129852;196506;524159;524159;76.0;0.0;95.6
11:35:02.564468;848;155613;117422;129823;195110;524159;524159;76.0;0.0;95.6
11:35:02.734330;849;155056;117406;129820;194257;524159;524159;76.0;0.0;95.6
11:35:02.742323;850;154836;117426;129834;193830;524159;524159;76.0;0.0;95.6
11:35:02.749512;851;154819;117448;129848;193638;524159;524159;76.0;0.0;95.6
11:35:02.757508;852;154687;117409;129825;193381;524159;524159;76.0;0.0;95.6
11:35:02.764508;853;154425;117370;129795;192984;524159;524159;75.0;0.0;95.6
11:35:02.934722;854;154200;117356;129781;192621;524159;524159;75.0;718.1;95.6
11:35:02.941717;855;154157;117363;129794;192468;524159;524159;75.0;0.0;95.6
11:35:02.949581;856;154283;117401;129820;192542;524159;524159;75.0;0.0;95.6
11:35:02.956822;857;154509;117456;129859;192766;524159;524159;75.0;0.0;95.6
11:35:02.964320;858;154779;117503;129885;193054;524159;524159;75.0;0.0;95.6
11:35:03.135275;859;155057;117556;129916;193393;524159;524159;75.0;0.0;95.6
11:35:03.142276;860;155308;117583;129935;193723;524159;524159;75.0;0.0;95.6
11:35:03.150564;861;155543;117609;129956;194043;524159;524159;75.0;0.0;95.6
11:35:03.157506;862;155798;117644;129975;194388;524159;524159;75.0;0.0;95.6
11:35:03.165550;863;156067;117685;129997;194769;524159;524159;75.0;0.0;95.6
11:35:03.335324;864;156399;117743;130038;195207;524159;524159;75.0;0.0;95.6
11:35:03.343323;865;156771;117803;130071;195691;524159;524159;75.0;0.0;95.6
11:35:03.357314;866;157155;117857;130118;196210;524159;524159;75.0;0.0;95.6
11:35:03.364306;867;157560;117928;130165;196767;524159;524159;75.0;0.0;95.6
11:35:03.367304;868;157971;117988;130209;197330;524159;524159;75.0;0.0;95.6
11:35:03.536580;869;158393;118052;130251;197908;524159;524159;75.0;0.0;95.6
11:35:03.546574;870;158646;118041;130240;198290;524159;524159;75.0;0.0;95.6
11:35:03.555570;871;157973;117786;130042;197583;524159;524159;75.0;0.0;95.6
11:35:03.561565;872;156621;117522;129874;195940;524159;524159;75.0;0.0;95.6
11:35:03.568561;873;155487;117407;129811;194469;524159;524159;75.0;0.0;95.5
11:35:03.736315;874;154863;117378;129805;193559;524159;524159;75.0;0.0;95.5
11:35:03.743320;875;154652;117401;129818;193119;524159;524159;75.0;0.0;95.5
11:35:03.751319;876;154727;117448;129848;193056;524159;524159;75.0;0.0;95.5
11:35:03.758503;877;154780;117459;129859;193036;524159;524159;75.0;901.9;95.5
11:35:03.765426;878;154656;117427;129831;192856;524159;524159;75.0;0.0;95.5
11:35:03.936312;879;154434;117398;129811;192539;524159;524159;75.0;0.0;95.5
11:35:03.943315;880;154336;117404;129821;192363;524159;524159;75.0;0.0;95.5
11:35:03.951316;881;154427;117444;129851;192423;524159;524159;75.0;0.0;95.5
11:35:03.963309;882;154632;117496;129877;192642;524159;524159;75.0;0.0;95.5
11:35:03.967306;883;154922;117537;129914;192966;524159;524159;75.0;0.0;95.5
11:35:04.136324;884;155242;117595;129951;193380;524159;524159;75.0;0.0;95.5
11:35:04.143525;885;155575;117638;129971;193803;524159;524159;75.0;0.0;95.5
11:35:04.156519;886;155860;117668;130005;194200;524159;524159;75.0;0.0;95.5
11:35:04.164513;887;156128;117695;130012;194583;524159;524159;75.0;0.0;95.5
11:35:04.170512;888;156436;117716;130019;195003;524159;524159;75.0;0.0;95.5
11:35:04.344211;889;156775;117748;130029;195471;524159;524159;75.0;0.0;95.5
11:35:04.352204;890;157165;117787;130044;195989;524159;524159;75.0;0.0;95.5
11:35:04.357200;891;157589;117839;130083;196548;524159;524159;75.0;0.0;95.5
11:35:04.361198;892;158009;117901;130115;197112;524159;524159;75.0;0.0;95.5
11:35:04.366703;893;158469;117949;130149;197708;524159;524159;75.0;0.0;95.5
11:35:04.373696;894;158795;117950;130137;198163;524159;524159;75.0;0.0;95.5
11:35:04.742310;895;158291;117721;129967;197635;524159;524159;75.0;0.0;95.5
11:35:04.751822;896;157162;117480;129794;196265;524159;524159;75.0;0.0;95.5
11:35:04.758818;897;156263;117380;129740;195067;524159;524159;75.0;0.0;95.5
11:35:04.768316;898;155846;117373;129741;194385;524159;524159;75.0;0.0;95.5
11:35:04.775482;899;155812;117421;129777;194179;524159;524159;75.0;0.0;95.5
11:35:04.782692;900;156039;117481;129822;194333;524159;524159;75.0;0.0;95.5
11:35:04.789547;901;156205;117510;129849;194463;524159;524159;75.0;0.0;95.5
11:35:04.797543;902;156160;117481;129830;194416;524159;524159;75.0;0.0;95.5
11:35:04.804514;903;156037;117465;129818;194260;524159;524159;75.0;0.0;95.5
11:35:04.812501;904;156023;117478;129831;194216;524159;524159;75.0;1061.6;95.5
11:35:05.142991;905;156184;117516;129865;194363;524159;524159;75.0;0.0;95.5
11:35:05.149492;906;156448;117580;129914;194661;524159;524159;75.0;0.0;95.5
11:35:05.157515;907;156770;117640;129959;195065;524159;524159;75.0;0.0;95.5
11:35:05.164493;908;157134;117707;130002;195521;524159;524159;75.0;0.0;95.5
11:35:05.171708;909;157473;117757;130038;195972;524159;524159;75.0;0.0;95.5
11:35:05.179392;910;157778;117798;130069;196390;524159;524159;75.0;0.0;95.5
11:35:05.186638;911;158070;117842;130113;196788;524159;524159;75.0;0.0;95.5
11:35:05.193465;912;158377;117899;130150;197205;524159;524159;75.0;0.0;95.5
11:35:05.201318;913;158714;117958;130192;197672;524159;524159;75.0;0.0;95.5
11:35:05.208493;914;159098;118019;130233;198184;524159;524159;75.0;0.0;95.5
11:35:05.550455;915;159475;118091;130293;198722;524159;524159;75.0;0.0;95.5
11:35:05.566448;916;159488;118041;130263;198858;524159;524159;75.0;0.0;95.5
11:35:05.580441;917;158698;117838;130123;198012;524159;524159;75.0;0.0;95.5
11:35:05.585434;918;157762;117690;130036;196879;524159;524159;75.0;0.0;95.5
11:35:05.590429;919;157196;117653;130022;196098;524159;524159;75.0;0.0;95.5
11:35:05.593427;920;157055;117705;130062;195809;524159;524159;75.0;0.0;95.5
11:35:05.596426;921;157249;117778;130112;195945;524159;524159;75.0;0.0;95.5
11:35:05.599424;922;157481;117842;130167;196178;524159;524159;75.0;0.0;95.5
11:35:05.602422;923;157532;117841;130162;196269;524159;524159;75.0;0.0;95.5
11:35:05.609437;924;157444;117827;130158;196181;524159;524159;75.0;0.0;95.5
11:35:05.944311;925;157400;117816;130155;196131;524159;524159;75.0;0.0;95.5
11:35:05.952315;926;157484;117849;130185;196245;524159;524159;75.0;0.0;95.5
11:35:05.960309;927;157700;117901;130220;196510;524159;524159;75.0;0.0;95.5
11:35:05.967302;928;157992;117959;130266;196885;524159;524159;75.0;0.0;95.5
11:35:05.975193;929;158355;118027;130312;197348;524159;524159;75.0;1022.7;95.5
11:35:05.982887;930;158714;118081;130341;197810;524159;524159;75.0;0.0;95.5
11:35:05.989484;931;159049;118125;130380;198263;524159;524159;75.0;0.0;95.5
11:35:05.997479;932;159364;118165;130407;198702;524159;524159;75.0;0.0;95.5
11:35:06.004519;933;159669;118219;130448;199145;524159;524159;74.0;0.0;95.5
11:35:06.012418;934;159986;118255;130481;199609;524159;524159;74.0;0.0;95.5
11:35:06.350547;935;160338;118318;130517;200108;524159;524159;74.0;0.0;95.5
11:35:06.361539;936;160701;118368;130556;200622;524159;524159;74.0;0.0;95.5
11:35:06.366535;937;160572;118249;130463;200572;524159;524159;74.0;0.0;95.5
11:35:06.371531;938;159607;117990;130278;199473;524159;524159;74.0;0.0;95.5
11:35:06.374529;939;158545;117836;130185;198165;524159;524159;74.0;0.0;95.5
11:35:06.380496;940;157893;117803;130180;197316;524159;524159;74.0;0.0;95.5
11:35:06.387491;941;157661;117821;130179;196936;524159;524159;74.0;0.0;95.5
11:35:06.395483;942;157748;117865;130209;196952;524159;524159;74.0;0.0;95.5
11:35:06.402582;943;157895;117903;130233;197077;524159;524159;74.0;0.0;95.5
11:35:06.409484;944;157865;117879;130220;197033;524159;524159;74.0;0.0;95.5
11:35:06.745581;945;157710;117855;130202;196802;524159;524159;74.0;0.0;95.5
11:35:06.753578;946;157591;117855;130205;196645;524159;524159;74.0;0.0;95.5
11:35:06.761297;947;157640;117881;130228;196684;524159;524159;74.0;0.0;95.5
11:35:06.768300;948;157797;117929;130260;196870;524159;524159;74.0;0.0;95.5
11:35:06.776306;949;158063;117997;130307;197188;524159;524159;74.0;0.0;95.5
11:35:06.784299;950;158362;118040;130346;197568;524159;524159;74.0;0.0;95.5
11:35:06.792294;951;158657;118086;130372;197965;524159;524159;74.0;0.0;95.5
11:35:06.799289;952;158951;118129;130395;198370;524159;524159;74.0;0.0;95.5
11:35:06.805286;953;159194;118156;130426;198706;524159;524159;74.0;958.6;95.5
11:35:06.813293;954;159454;118186;130448;199074;524159;524159;74.0;0.0;95.5
11:35:06.940304;955;159749;118233;130481;199480;524159;524159;74.0;0.0;95.5
11:35:06.947299;956;160067;118290;130522;199924;524159;524159;74.0;0.0;95.5
11:35:06.954301;957;160427;118355;130558;200421;524159;524159;74.0;0.0;95.5
11:35:06.962295;958;160741;118386;130579;200867;524159;524159;74.0;0.0;95.5
11:35:06.969484;959;160399;118212;130448;200564;524159;524159;74.0;0.0;95.5
11:35:07.140290;960;159277;117951;130272;199248;524159;524159;74.0;0.0;95.5
11:35:07.147299;961;158196;117824;130191;197902;524159;524159;74.0;0.0;95.5
11:35:07.155295;962;157566;117793;130192;197036;524159;524159;74.0;0.0;95.5
11:35:07.162293;963;157352;117817;130195;196664;524159;524159;74.0;0.0;95.5
11:35:07.171284;964;157423;117878;130238;196644;524159;524159;74.0;0.0;95.5
11:35:07.340293;965;157495;117897;130256;196704;524159;524159;74.0;0.0;95.5
11:35:07.348288;966;157410;117870;130235;196587;524159;524159;74.0;0.0;95.5
11:35:07.356283;967;157214;117836;130212;196336;524159;524159;74.0;0.0;95.5
11:35:07.363298;968;157117;117836;130214;196197;524159;524159;74.0;0.0;95.5
11:35:07.370291;969;157170;117861;130234;196216;524159;524159;74.0;0.0;95.5
11:35:07.545802;970;157352;117908;130262;196426;524159;524159;74.0;0.0;95.5
11:35:07.559794;971;157623;117969;130303;196746;524159;524159;74.0;0.0;95.5
11:35:07.563790;972;157928;118015;130335;197122;524159;524159;74.0;0.0;95.5
11:35:07.566789;973;158211;118054;130357;197503;524159;524159;74.0;0.0;95.5
11:35:07.569597;974;158460;118090;130388;197866;524159;524159;74.0;858.7;95.5
11:35:07.740285;975;158703;118117;130410;198215;524159;524159;74.0;0.0;95.5
11:35:07.747473;976;158950;118157;130428;198572;524159;524159;74.0;0.0;95.5
11:35:07.754295;977;159234;118199;130453;198968;524159;524159;74.0;0.0;95.5
11:35:07.762273;978;159558;118245;130488;199414;524159;524159;74.0;0.0;95.5
11:35:07.769654;979;159915;118304;130533;199909;524159;524159;74.0;0.0;95.5
11:35:07.941299;980;160297;118369;130566;200433;524159;524159;74.0;0.0;95.5
11:35:07.948478;981;160699;118416;130606;200972;524159;524159;74.0;0.0;95.5
11:35:07.955596;982;160814;118361;130556;201209;524159;524159;74.0;0.0;95.5
11:35:07.962512;983;159961;118090;130359;200268;524159;524159;74.0;0.0;95.5
11:35:07.970394;984;158734;117882;130222;198788;524159;524159;74.0;0.0;95.5
11:35:08.141573;985;157869;117812;130185;197682;524159;524159;74.0;0.0;95.5
11:35:08.149568;986;157484;117819;130205;197104;524159;524159;74.0;0.0;95.5
11:35:08.156572;987;157438;117856;130232;196950;524159;524159;74.0;0.0;95.5
11:35:08.164457;988;157594;117905;130259;197063;524159;524159;74.0;0.0;95.5
11:35:08.171725;989;157613;117893;130257;197082;524159;524159;74.0;0.0;95.5
11:35:08.342287;990;157452;117851;130224;196876;524159;524159;74.0;0.0;95.5
11:35:08.349241;991;157286;117831;130217;196653;524159;524159;74.0;0.0;95.5
11:35:08.367234;992;157270;117851;130229;196614;524159;524159;74.0;0.0;95.5
11:35:08.373231;993;157434;117886;130255;196776;524159;524159;74.0;0.0;95.5
11:35:08.377226;994;157678;117945;130295;197052;524159;524159;74.0;0.0;95.5
11:35:08.542290;995;157984;117992;130337;197432;524159;524159;74.0;836.4;95.5
11:35:08.549466;996;158296;118045;130364;197842;524159;524159;74.0;0.0;95.5
11:35:08.556072;997;158586;118080;130387;198236;524159;524159;74.0;0.0;95.5
11:35:08.564065;998;158824;118114;130417;198604;524159;524159;74.0;0.0;95.5
11:35:08.571119;999;159056;118145;130440;198974;524159;524159;74.0;0.0;95.5
11:35:08.742284;1000;159310;118190;130474;199361;524159;524159;74.0;0.0;95.5
11:35:08.750284;1001;159609;118248;130527;199780;524159;524159;74.0;0.0;95.5
11:35:08.759284;1002;159941;118313;130565;200248;524159;524159;74.0;0.0;95.5
11:35:08.765817;1003;160321;118373;130611;200757;524159;524159;74.0;0.0;95.5
11:35:08.773166;1004;160560;118389;130614;201125;524159;524159;74.0;0.0;95.5
11:35:08.942232;1005;160031;118187;130467;200572;524159;524159;74.0;0.0;95.5
11:35:08.953228;1006;158914;117975;130338;199228;524159;524159;74.0;0.0;95.5
11:35:08.967220;1007;158007;117900;130298;198070;524159;524159;74.0;0.0;95.5
11:35:08.973212;1008;157559;117915;130313;197429;524159;524159;74.0;0.0;95.5
11:35:08.976210;1009;157511;117968;130355;197262;524159;524159;74.0;0.0;95.5
11:35:09.142285;1010;157699;118032;130401;197383;524159;524159;74.0;0.0;95.5
11:35:09.152281;1011;157750;118021;130400;197394;524159;524159;74.0;0.0;95.5
11:35:09.158274;1012;157608;117993;130378;197177;524159;524159;74.0;0.0;95.5
11:35:09.164274;1013;157419;117967;130360;196931;524159;524159;73.0;0.0;95.5
11:35:09.172327;1014;157374;117979;130369;196830;524159;524159;73.0;0.0;95.5
11:35:09.344296;1015;157495;118016;130397;196923;524159;524159;73.0;0.0;95.5
11:35:09.358282;1016;157708;118071;130433;197154;524159;524159;73.0;0.0;95.5
11:35:09.363278;1017;157972;118126;130459;197485;524159;524159;73.0;873.9;95.5
11:35:09.368197;1018;158244;118168;130493;197820;524159;524159;73.0;0.0;95.5
11:35:09.375572;1019;158502;118206;130517;198160;524159;524159;73.0;0.0;95.5
11:35:09.542845;1020;158724;118232;130542;198478;524159;524159;73.0;0.0;95.5
11:35:09.550841;1021;158946;118263;130559;198809;524159;524159;73.0;0.0;95.5
11:35:09.558834;1022;159179;118302;130592;199147;524159;524159;73.0;0.0;95.5
11:35:09.566279;1023;159461;118351;130624;199534;524159;524159;73.0;0.0;95.5
11:35:09.574306;1024;159811;118405;130660;199986;524159;524159;73.0;0.0;95.5
11:35:09.743460;1025;160105;118432;130669;200377;524159;524159;73.0;0.0;95.5
11:35:09.750664;1026;159688;118245;130532;199934;524159;524159;73.0;0.0;95.5
11:35:09.757462;1027;158456;117984;130360;198450;524159;524159;73.0;0.0;95.5
11:35:09.765463;1028;157291;117843;130267;196955;524159;524159;73.0;0.0;95.5
11:35:09.772235;1029;156599;117820;130259;195967;524159;524159;73.0;0.0;95.5
11:35:09.944234;1030;156330;117822;130267;195475;524159;524159;73.0;0.0;95.5
11:35:09.951286;1031;156350;117868;130295;195336;524159;524159;73.0;0.0;95.5
11:35:09.963275;1032;156376;117881;130312;195281;524159;524159;73.0;0.0;95.5
11:35:09.969270;1033;156227;117832;130275;195027;524159;524159;73.0;0.0;95.5
11:35:09.974269;1034;156001;117792;130244;194651;524159;524159;73.0;0.0;95.5
11:35:10.144278;1035;155878;117788;130244;194427;524159;524159;73.0;0.0;95.5
11:35:10.153273;1036;155922;117812;130257;194421;524159;524159;73.0;0.0;95.5
11:35:10.161268;1037;156091;117856;130289;194563;524159;524159;73.0;0.0;95.5
11:35:10.167263;1038;156349;117897;130316;194825;524159;524159;73.0;0.0;95.5
11:35:10.174515;1039;156632;117941;130347;195139;524159;524159;73.0;0.0;95.5
11:35:10.344264;1040;156876;117969;130364;195440;524159;524159;73.0;0.0;95.5
11:35:10.352275;1041;157108;117993;130384;195726;524159;524159;73.0;939.1;95.5
11:35:10.360270;1042;157328;118014;130396;196000;524159;524159;73.0;0.0;95.5
11:35:10.367273;1043;157561;118039;130416;196316;524159;524159;73.0;0.0;95.5
11:35:10.377273;1044;157850;118088;130435;196684;524159;524159;73.0;0.0;95.5
11:35:10.544279;1045;158175;118133;130472;197108;524159;524159;73.0;0.0;95.5
11:35:10.551276;1046;158527;118182;130505;197563;524159;524159;73.0;0.0;95.5
11:35:10.559255;1047;158900;118240;130543;198058;524159;524159;73.0;0.0;95.5
11:35:10.566564;1048;159284;118295;130577;198572;524159;524159;73.0;0.0;95.4
11:35:10.574273;1049;159299;118216;130519;198674;524159;524159;73.0;0.0;95.4
11:35:10.745753;1050;158281;117926;130314;197521;524159;524159;73.0;0.0;95.4
11:35:10.752098;1051;156882;117708;130172;195810;524159;524159;73.0;0.0;95.4
11:35:10.760455;1052;155862;117625;130130;194493;524159;524159;73.0;0.0;95.4
11:35:10.767452;1053;155332;117603;130124;193708;524159;524159;73.0;0.0;95.4
11:35:10.774455;1054;155155;117618;130132;193358;524159;524159;73.0;0.0;95.4
11:35:10.944629;1055;155197;117653;130145;193284;524159;524159;73.0;0.0;95.4
11:35:10.952630;1056;155118;117635;130139;193149;524159;524159;73.0;0.0;95.4
11:35:10.966621;1057;154865;117581;130101;192789;524159;524159;73.0;0.0;95.4
11:35:10.977614;1058;154614;117559;130081;192443;524159;524159;72.0;0.0;95.4
11:35:10.982607;1059;154549;117571;130098;192306;524159;524159;72.0;0.0;95.4
11:35:11.145267;1060;154662;117606;130115;192393;524159;524159;72.0;0.0;95.4
11:35:11.153272;1061;154875;117648;130149;192634;524159;524159;72.0;0.0;95.4
11:35:11.160279;1062;155144;117683;130171;192967;524159;524159;72.0;0.0;95.4
11:35:11.168277;1063;155419;117721;130190;193325;524159;524159;72.0;888.8;95.4
11:35:11.175274;1064;155665;117748;130209;193661;524159;524159;72.0;0.0;95.4
11:35:11.345704;1065;155926;117777;130220;194027;524159;524159;72.0;0.0;95.4
11:35:11.352265;1066;156193;117801;130238;194380;524159;524159;72.0;0.0;95.4
11:35:11.360265;1067;156490;117836;130260;194789;524159;524159;72.0;0.0;95.4
11:35:11.367506;1068;156831;117887;130291;195247;524159;524159;72.0;0.0;95.4
11:35:11.375402;1069;157212;117933;130321;195739;524159;524159;72.0;0.0;95.4
11:35:11.545267;1070;157623;117988;130362;196293;524159;524159;72.0;0.0;95.4
11:35:11.553571;1071;158044;118048;130403;196881;524159;524159;72.0;0.0;95.4
11:35:11.560166;1072;158472;118103;130437;197487;524159;524159;72.0;0.0;95.4
11:35:11.568163;1073;158783;118097;130428;197942;524159;524159;72.0;0.0;95.4
11:35:11.575273;1074;158218;117864;130252;197354;524159;524159;72.0;0.0;95.4
11:35:11.745900;1075;156993;117611;130088;195886;524159;524159;72.0;0.0;95.4
11:35:11.753261;1076;155997;117496;130029;194578;524159;524159;72.0;0.0;95.4
11:35:11.760275;1077;155463;117485;130022;193828;524159;524159;72.0;0.0;95.4
11:35:11.767452;1078;155310;117507;130044;193521;524159;524159;72.0;0.0;95.4
11:35:11.774450;1079;155416;117554;130076;193558;524159;524159;72.0;0.0;95.4
11:35:11.946261;1080;155483;117558;130083;193582;524159;524159;72.0;0.0;95.4
11:35:11.955265;1081;155337;117514;130049;193395;524159;524159;72.0;0.0;95.4
11:35:11.964260;1082;155135;117479;130035;193113;524159;524159;72.0;0.0;95.4
11:35:11.972251;1083;155081;117485;130045;193015;524159;524159;72.0;0.0;95.4
11:35:11.976249;1084;155201;117528;130065;193145;524159;524159;72.0;851.5;95.4
11:35:12.147260;1085;155428;117585;130114;193410;524159;524159;72.0;0.0;95.4
11:35:12.155265;1086;155719;117647;130151;193747;524159;524159;72.0;0.0;95.4
11:35:12.164256;1087;156008;117696;130190;194135;524159;524159;72.0;0.0;95.4
11:35:12.171253;1088;156273;117733;130216;194498;524159;524159;72.0;0.0;95.4
11:35:12.178271;1089;156485;117770;130242;194816;524159;524159;72.0;0.0;95.4
11:35:12.346147;1090;156708;117796;130266;195129;524159;524159;72.0;0.0;95.4
11:35:12.354142;1091;156949;117832;130296;195474;524159;524159;72.0;0.0;95.4
11:35:12.361137;1092;157226;117892;130341;195855;524159;524159;72.0;0.0;95.4
11:35:12.369267;1093;157567;117952;130388;196318;524159;524159;72.0;0.0;95.4
11:35:12.376442;1094;157950;118018;130423;196821;524159;524159;72.0;0.0;95.4
11:35:12.547260;1095;158231;118040;130447;197222;524159;524159;72.0;0.0;95.4
11:35:12.555262;1096;157774;117863;130308;196760;524159;524159;72.0;0.0;95.4
11:35:12.562264;1097;156678;117638;130164;195450;524159;524159;72.0;0.0;95.4
11:35:12.569264;1098;155748;117529;130100;194240;524159;524159;72.0;0.0;95.4
11:35:12.577416;1099;155257;117528;130107;193545;524159;524159;72.0;0.0;95.4
11:35:12.752357;1100;155177;117565;130138;193339;524159;524159;72.0;0.0;95.4
11:35:12.756356;1101;155356;117623;130167;193455;524159;524159;72.0;0.0;95.4
11:35:12.761354;1102;155435;117624;130172;193524;524159;524159;72.0;0.0;95.4
11:35:12.769484;1103;155320;117588;130145;193351;524159;524159;72.0;0.0;95.4
11:35:12.777211;1104;155167;117556;130126;193122;524159;524159;72.0;0.0;95.4
11:35:12.947320;1105;155136;117566;130139;193052;524159;524159;72.0;0.0;95.4
11:35:12.955316;1106;155263;117610;130166;193198;524159;524159;72.0;0.0;95.4
11:35:12.968310;1107;155486;117653;130201;193470;524159;524159;72.0;0.0;95.4
11:35:12.980302;1108;155774;117705;130237;193833;524159;524159;72.0;940.7;95.4
11:35:12.986298;1109;156067;117753;130268;194224;524159;524159;72.0;0.0;95.4
11:35:13.148212;1110;156357;117784;130288;194641;524159;524159;72.0;0.0;95.4
11:35:13.156258;1111;156597;117813;130303;195017;524159;524159;72.0;0.0;95.4
11:35:13.163259;1112;156853;117842;130322;195377;524159;524159;72.0;0.0;95.4
11:35:13.171264;1113;157120;117876;130344;195783;524159;524159;71.0;0.0;95.4
11:35:13.178254;1114;157431;117924;130376;196219;524159;524159;71.0;0.0;95.4
11:35:13.348257;1115;157783;117984;130415;196705;524159;524159;71.0;0.0;95.4
11:35:13.362253;1116;158173;118041;130444;197265;524159;524159;71.0;0.0;95.4
11:35:13.372241;1117;158535;118078;130477;197797;524159;524159;71.0;0.0;95.4
11:35:13.380241;1118;158321;117934;130364;197664;524159;524159;71.0;0.0;95.4
11:35:13.384234;1119;157163;117643;130170;196331;524159;524159;71.0;0.0;95.4
11:35:13.552205;1120;155950;117464;130062;194820;524159;524159;71.0;0.0;95.4
11:35:13.560201;1121;155163;117414;130031;193784;524159;524159;71.0;0.0;95.4
11:35:13.565199;1122;154774;117412;130033;193207;524159;524159;71.0;0.0;95.4
11:35:13.572261;1123;154703;117433;130053;193030;524159;524159;71.0;0.0;95.5
11:35:13.579259;1124;154741;117450;130067;193010;524159;524159;71.0;0.0;95.5
11:35:13.751501;1125;154641;117423;130040;192853;524159;524159;71.0;0.0;95.5
11:35:13.761500;1126;154423;117378;130001;192558;524159;524159;71.0;0.0;95.5
11:35:13.767494;1127;154278;117364;129994;192337;524159;524159;71.0;0.0;95.5
11:35:13.773009;1128;154307;117386;130020;192356;524159;524159;71.0;0.0;95.5
11:35:13.778387;1129;154475;117432;130041;192555;524159;524159;71.0;0.0;95.5
11:35:13.948257;1130;154722;117473;130070;192849;524159;524159;71.0;0.0;95.5
11:35:13.957261;1131;154975;117506;130099;193183;524159;524159;71.0;0.0;95.5
11:35:13.971777;1132;155229;117546;130118;193533;524159;524159;71.0;972.7;95.5
11:35:13.981771;1133;155460;117568;130137;193870;524159;524159;71.0;0.0;95.5
11:35:13.984765;1134;155686;117588;130151;194190;524159;524159;71.0;0.0;95.5
11:35:14.154788;1135;155950;117625;130170;194566;524159;524159;71.0;0.0;95.5
11:35:14.163779;1136;156246;117669;130203;194978;524159;524159;71.0;0.0;95.5
11:35:14.167776;1137;156569;117719;130227;195433;524159;524159;71.0;0.0;95.5
11:35:14.170775;1138;156914;117768;130263;195943;524159;524159;71.0;0.0;95.5
11:35:14.178256;1139;157285;117823;130297;196480;524159;524159;71.0;0.0;95.5
11:35:14.351992;1140;157669;117878;130343;197029;524159;524159;71.0;0.0;95.5
11:35:14.360987;1141;158058;117933;130374;197589;524159;524159;71.0;0.0;95.5
11:35:14.370979;1142;158456;117984;130408;198180;524159;524159;71.0;0.0;95.5
11:35:14.374975;1143;158592;117938;130358;198463;524159;524159;71.0;0.0;95.5
11:35:14.379936;1144;157762;117652;130159;197570;524159;524159;71.0;0.0;95.5
11:35:14.550252;1145;156460;117413;130007;196005;524159;524159;71.0;0.0;95.5
11:35:14.557249;1146;155478;117312;129944;194721;524159;524159;71.0;0.0;95.5
11:35:14.565248;1147;154973;117285;129926;193983;524159;524159;71.0;0.0;95.5
11:35:14.572256;1148;154766;117279;129927;193604;524159;524159;71.0;0.0;95.5
11:35:14.580249;1149;154802;117306;129940;193547;524159;524159;71.0;0.0;95.5
11:35:14.750249;1150;154766;117293;129927;193478;524159;524159;71.0;0.0;95.5
11:35:14.758242;1151;154581;117247;129890;193228;524159;524159;71.0;0.0;95.5
11:35:14.765238;1152;154395;117217;129869;192980;524159;524159;71.0;0.0;95.5
11:35:14.772234;1153;154354;117222;129872;192903;524159;524159;71.0;0.0;95.5
11:35:14.780235;1154;154483;117260;129901;193039;524159;524159;71.0;879.2;95.5
11:35:14.953604;1155;154715;117302;129933;193315;524159;524159;71.0;0.0;95.5
11:35:14.960598;1156;155013;117346;129964;193682;524159;524159;71.0;0.0;95.5
11:35:14.967596;1157;155295;117386;129985;194055;524159;524159;71.0;0.0;95.5
11:35:14.973520;1158;155567;117413;130011;194429;524159;524159;71.0;0.0;95.5
11:35:14.980423;1159;155819;117439;130026;194805;524159;524159;71.0;0.0;95.5
11:35:15.156904;1160;156082;117471;130041;195171;524159;524159;71.0;0.0;95.5
11:35:15.170391;1161;156386;117503;130061;195578;524159;524159;71.0;0.0;95.5
11:35:15.180370;1162;156734;117550;130098;196035;524159;524159;71.0;0.0;95.5
11:35:15.184363;1163;157114;117611;130131;196568;524159;524159;71.0;0.0;95.5
11:35:15.187359;1164;157509;117671;130175;197120;524159;524159;71.0;0.0;95.5
11:35:15.351246;1165;157928;117728;130219;197682;524159;524159;71.0;0.0;95.5
11:35:15.360239;1166;158353;117797;130267;198284;524159;524159;71.0;0.0;95.5
11:35:15.366234;1167;158747;117831;130286;198866;524159;524159;71.0;0.0;95.5
11:35:15.373405;1168;158543;117676;130171;198763;524159;524159;71.0;0.0;95.5
11:35:15.381976;1169;157558;117435;130004;197691;524159;524159;71.0;0.0;95.5
11:35:15.551242;1170;156581;117306;129931;196554;524159;524159;71.0;0.0;95.5
11:35:15.559244;1171;156050;117288;129926;195869;524159;524159;71.0;0.0;95.5
11:35:15.572234;1172;155915;117326;129953;195633;524159;524159;71.0;0.0;95.5
11:35:15.577234;1173;156103;117384;129997;195775;524159;524159;71.0;0.0;95.5
11:35:15.582231;1174;156280;117406;130012;195945;524159;524159;71.0;0.0;95.5
11:35:15.758046;1175;156235;117374;129992;195882;524159;524159;71.0;0.0;95.5
11:35:15.769041;1176;156078;117347;129970;195675;524159;524159;71.0;0.0;95.5
11:35:15.783030;1177;156021;117348;129977;195609;524159;524159;71.0;896.8;95.5
11:35:15.786028;1178;156130;117383;130002;195763;524159;524159;70.0;0.0;95.5
11:35:15.788026;1179;156382;117436;130031;196050;524159;524159;70.0;0.0;95.5
11:35:15.952626;1180;156686;117493;130076;196413;524159;524159;70.0;0.0;95.5
11:35:15.961621;1181;157015;117541;130106;196818;524159;524159;70.0;0.0;95.5
11:35:15.966618;1182;157317;117577;130140;197214;524159;524159;70.0;0.0;95.5
11:35:15.973267;1183;157586;117612;130158;197580;524159;524159;70.0;0.0;95.5
11:35:15.980632;1184;157849;117639;130180;197943;524159;524159;70.0;0.0;95.5
11:35:16.151262;1185;158115;117679;130211;198318;524159;524159;70.0;0.0;95.5
11:35:16.159239;1186;158446;117736;130240;198761;524159;524159;70.0;0.0;95.5
11:35:16.166237;1187;158832;117806;130286;199269;524159;524159;70.0;0.0;95.5
11:35:16.174231;1188;159212;117853;130331;199776;524159;524159;70.0;0.0;95.5
11:35:16.182188;1189;159154;117749;130247;199794;524159;524159;70.0;0.0;95.5
11:35:16.352804;1190;158275;117512;130087;198833;524159;524159;70.0;0.0;95.5
11:35:16.359799;1191;157308;117375;130003;197709;524159;524159;70.0;0.0;95.5
11:35:16.367794;1192;156731;117357;130005;196985;524159;524159;70.0;0.0;95.5
11:35:16.375233;1193;156569;117388;130019;196704;524159;524159;70.0;0.0;95.5
11:35:16.383232;1194;156730;117462;130072;196820;524159;524159;70.0;0.0;95.5
11:35:16.552026;1195;156881;117490;130100;196968;524159;524159;70.0;0.0;95.5
11:35:16.558416;1196;156823;117462;130080;196906;524159;524159;70.0;0.0;95.5
11:35:16.566579;1197;156643;117436;130063;196690;524159;524159;70.0;0.0;95.5
11:35:16.573570;1198;156564;117451;130074;196614;524159;524159;70.0;0.0;95.5
11:35:16.581243;1199;156669;117493;130106;196756;524159;524159;70.0;0.0;95.5
11:35:16.752231;1200;156891;117543;130146;197050;524159;524159;70.0;0.0;95.5
11:35:16.760226;1201;157183;117609;130195;197422;524159;524159;70.0;0.0;95.5
11:35:16.767234;1202;157474;117663;130236;197805;524159;524159;70.0;1016.1;95.5
11:35:16.775235;1203;157771;117713;130270;198195;524159;524159;70.0;0.0;95.5
11:35:16.782230;1204;158013;117753;130299;198534;524159;524159;70.0;0.0;95.5
11:35:16.952231;1205;158287;117804;130330;198909;524159;524159;70.0;0.0;95.5
11:35:16.959364;1206;158563;117856;130368;199288;524159;524159;70.0;0.0;95.5
11:35:16.967232;1207;158750;117858;130373;199569;524159;524159;70.0;0.0;95.5
11:35:16.974241;1208;158200;117675;130241;198978;524159;524159;70.0;0.0;95.5
11:35:16.982231;1209;157045;117463;130101;197627;524159;524159;70.0;0.0;95.5
11:35:17.159963;1210;156062;117365;130056;196388;524159;524159;70.0;0.0;95.5
11:35:17.174954;1211;155490;117352;130052;195624;524159;524159;70.0;0.0;95.5
11:35:17.184949;1212;155313;117389;130074;195288;524159;524159;70.0;0.0;95.5
11:35:17.191946;1213;155396;117426;130104;195268;524159;524159;70.0;0.0;95.5
11:35:17.194939;1214;155414;117421;130107;195205;524159;524159;70.0;0.0;95.5
11:35:17.353656;1215;155232;117386;130080;194949;524159;524159;70.0;0.0;95.5
11:35:17.360230;1216;155049;117359;130067;194673;524159;524159;70.0;0.0;95.5
11:35:17.368234;1217;155012;117371;130076;194577;524159;524159;70.0;0.0;95.5
11:35:17.375244;1218;155141;117408;130098;194681;524159;524159;70.0;0.0;95.5
11:35:17.382363;1219;155356;117455;130124;194898;524159;524159;70.0;0.0;95.5
11:35:17.553231;1220;155632;117490;130153;195194;524159;524159;70.0;0.0;95.5
11:35:17.561234;1221;155908;117523;130182;195489;524159;524159;70.0;0.0;95.5
11:35:17.568511;1222;156165;117552;130189;195789;524159;524159;70.0;0.0;95.5
11:35:17.575409;1223;156402;117580;130218;196079;524159;524159;69.0;0.0;95.5
11:35:17.583529;1224;156648;117606;130228;196380;524159;524159;69.0;0.0;95.5
11:35:17.754466;1225;156924;117654;130260;196722;524159;524159;69.0;0.0;95.5
11:35:17.765460;1226;157248;117703;130295;197114;524159;524159;69.0;0.0;95.5
11:35:17.779500;1227;157611;117763;130328;197577;524159;524159;69.0;978.0;95.5
11:35:17.789447;1228;157963;117795;130356;198028;524159;524159;69.0;0.0;95.5
11:35:17.793439;1229;157673;117633;130231;197740;524159;524159;69.0;0.0;95.5
11:35:17.954195;1230;156310;117321;130020;196156;524159;524159;69.0;0.0;95.5
11:35:17.962224;1231;154819;117119;129892;194299;524159;524159;69.0;0.0;95.5
11:35:17.969224;1232;153753;117028;129835;192876;524159;524159;69.0;0.0;95.5
11:35:17.976462;1233;153067;116974;129802;191899;524159;524159;69.0;0.0;95.5
11:35:17.983405;1234;152736;116971;129796;191349;524159;524159;69.0;0.0;95.5
11:35:18.154229;1235;152637;116977;129812;191080;524159;524159;69.0;0.0;95.5
11:35:18.161223;1236;152444;116946;129781;190772;524159;524159;69.0;0.0;95.5
11:35:18.169228;1237;152170;116898;129746;190377;524159;524159;69.0;0.0;95.5
11:35:18.183215;1238;151954;116868;129723;190046;524159;524159;69.0;0.0;95.5
11:35:18.186213;1239;151921;116882;129728;189945;524159;524159;69.0;0.0;95.5
11:35:18.355177;1240;152052;116911;129754;190051;524159;524159;69.0;0.0;95.5
11:35:18.371167;1241;152288;116958;129777;190301;524159;524159;69.0;0.0;95.5
11:35:18.385158;1242;152563;116992;129796;190588;524159;524159;69.0;0.0;95.5
11:35:18.391154;1243;152831;117015;129806;190909;524159;524159;69.0;0.0;95.5
11:35:18.394152;1244;153082;117040;129815;191220;524159;524159;69.0;0.0;95.5
11:35:18.556636;1245;153332;117062;129832;191552;524159;524159;69.0;0.0;95.5
11:35:18.567630;1246;153615;117101;129855;191924;524159;524159;69.0;0.0;95.5
11:35:18.572625;1247;153936;117138;129878;192331;524159;524159;69.0;844.0;95.5
11:35:18.577623;1248;154299;117190;129911;192800;524159;524159;68.0;0.0;95.5
11:35:18.584619;1249;154681;117245;129946;193316;524159;524159;68.0;0.0;95.5
11:35:18.755221;1250;155074;117305;129979;193864;524159;524159;68.0;0.0;95.5
11:35:18.762220;1251;155485;117361;130024;194431;524159;524159;68.0;0.0;95.5
11:35:18.770224;1252;155903;117412;130056;195003;524159;524159;68.0;0.0;95.5
11:35:18.777217;1253;156319;117470;130095;195583;524159;524159;68.0;0.0;95.5
11:35:18.785803;1254;156743;117530;130135;196161;524159;524159;68.0;0.0;95.5
11:35:18.955241;1255;157170;117591;130173;196765;524159;524159;68.0;0.0;95.5
11:35:18.963229;1256;157604;117649;130210;197373;524159;524159;68.0;0.0;95.5
11:35:18.971219;1257;157558;117523;130113;197442;524159;524159;68.0;0.0;95.5
11:35:18.978214;1258;156362;117198;129877;196141;524159;524159;68.0;0.0;95.5
11:35:18.986222;1259;154849;116961;129743;194345;524159;524159;68.0;0.0;95.5
11:35:19.155218;1260;153733;116860;129675;192910;524159;524159;68.0;0.0;95.5
11:35:19.163214;1261;153048;116812;129657;191935;524159;524159;68.0;0.0;95.5
11:35:19.173214;1262;152691;116813;129644;191353;524159;524159;68.0;0.0;95.5
11:35:19.178816;1263;152611;116828;129658;191128;524159;524159;68.0;0.0;95.5
11:35:19.185847;1264;152509;116822;129661;190934;524159;524159;68.0;0.0;95.5
11:35:19.356570;1265;152294;116785;129615;190626;524159;524159;68.0;0.0;95.5
11:35:19.363217;1266;152093;116758;129604;190334;524159;524159;68.0;746.0;95.5
11:35:19.371217;1267;152069;116767;129615;190235;524159;524159;68.0;0.0;95.5
11:35:19.380230;1268;152221;116808;129644;190367;524159;524159;68.0;0.0;95.5
11:35:19.386221;1269;152472;116854;129672;190640;524159;524159;68.0;0.0;95.5
11:35:19.561223;1270;152776;116896;129698;190974;524159;524159;68.0;0.0;95.5
11:35:19.576217;1271;153069;116939;129731;191343;524159;524159;68.0;0.0;95.5
11:35:19.587210;1272;153339;116974;129755;191707;524159;524159;68.0;0.0;95.5
11:35:19.592207;1273;153611;117014;129772;192091;524159;524159;67.0;0.0;95.6
11:35:19.596202;1274;153904;117049;129792;192485;524159;524159;67.0;0.0;95.6
11:35:19.756214;1275;154244;117097;129827;192917;524159;524159;67.0;0.0;95.6
11:35:19.765211;1276;154619;117153;129857;193412;524159;524159;67.0;0.0;95.6
11:35:19.775205;1277;155010;117214;129895;193943;524159;524159;67.0;0.0;95.6
11:35:19.781201;1278;155432;117277;129940;194510;524159;524159;67.0;0.0;95.6
11:35:19.787197;1279;155858;117346;129977;195088;524159;524159;67.0;0.0;95.6
11:35:19.956214;1280;156290;117395;130020;195686;524159;524159;67.0;0.0;95.6
11:35:19.964214;1281;156733;117468;130067;196287;524159;524159;67.0;0.0;95.6
11:35:19.971210;1282;157175;117531;130109;196900;524159;524159;67.0;0.0;95.6
11:35:19.979215;1283;157668;117589;130141;197563;524159;524159;67.0;0.0;95.6
11:35:19.986617;1284;158142;117639;130173;198203;524159;524159;67.0;0.0;95.6
11:35:20.157226;1285;158143;117521;130075;198323;524159;524159;67.0;0.0;95.6
11:35:20.171218;1286;157146;117227;129871;197249;524159;524159;67.0;0.0;95.6
11:35:20.183204;1287;155930;117036;129753;195794;524159;524159;67.0;0.0;95.6
11:35:20.189200;1288;155107;116979;129722;194730;524159;524159;67.0;861.5;95.6
11:35:20.193197;1289;154700;116979;129733;194146;524159;524159;67.0;0.0;95.6
11:35:20.357208;1290;154624;117011;129749;193946;524159;524159;67.0;0.0;95.6
11:35:20.365209;1291;154730;117055;129792;193964;524159;524159;67.0;0.0;95.6
11:35:20.373202;1292;154763;117052;129780;193952;524159;524159;67.0;0.0;95.6
11:35:20.379932;1293;154673;117023;129767;193819;524159;524159;67.0;0.0;95.6
11:35:20.386591;1294;154608;117022;129764;193691;524159;524159;67.0;0.0;95.6
11:35:20.557621;1295;154675;117049;129786;193727;524159;524159;67.0;0.0;95.6
11:35:20.565618;1296;154901;117098;129819;193977;524159;524159;67.0;0.0;95.6
11:35:20.572613;1297;155219;117153;129855;194348;524159;524159;67.0;0.0;95.6
11:35:20.580608;1298;155579;117212;129900;194795;524159;524159;67.0;0.0;95.6
11:35:20.587411;1299;155953;117264;129922;195270;524159;524159;67.0;0.0;95.6
11:35:20.758207;1300;156284;117314;129956;195711;524159;524159;67.0;0.0;95.6
11:35:20.767208;1301;156621;117352;129984;196171;524159;524159;67.0;0.0;95.6
11:35:20.776201;1302;156965;117393;130020;196638;524159;524159;67.0;0.0;95.6
11:35:20.786147;1303;157331;117451;130049;197132;524159;524159;67.0;0.0;95.6
11:35:20.792148;1304;157731;117512;130086;197674;524159;524159;67.0;0.0;95.6
11:35:20.958208;1305;158167;117576;130131;198257;524159;524159;67.0;0.0;95.6
11:35:20.965207;1306;158606;117642;130176;198863;524159;524159;67.0;0.0;95.6
11:35:20.972203;1307;159059;117713;130226;199482;524159;524159;67.0;0.0;95.6
11:35:20.980281;1308;159530;117785;130279;200156;524159;524159;67.0;0.0;95.6
11:35:20.987389;1309;159991;117856;130325;200807;524159;524159;67.0;0.0;95.6
11:35:21.157895;1310;160165;117796;130283;201158;524159;524159;67.0;0.0;95.6
11:35:21.166218;1311;159490;117555;130101;200503;524159;524159;67.0;0.0;95.6
11:35:21.174210;1312;158496;117362;129980;199394;524159;524159;67.0;0.0;95.6
11:35:21.181202;1313;157823;117322;129954;198575;524159;524159;67.0;0.0;95.6
11:35:21.188387;1314;157563;117346;129983;198188;524159;524159;67.0;0.0;95.6
11:35:21.358209;1315;157634;117404;130033;198182;524159;524159;67.0;0.0;95.6
11:35:21.365205;1316;157855;117469;130071;198380;524159;524159;67.0;1123.6;95.6
11:35:21.373205;1317;157967;117484;130089;198512;524159;524159;67.0;0.0;95.6
11:35:21.380703;1318;157913;117465;130072;198459;524159;524159;67.0;0.0;95.6
11:35:21.387203;1319;157841;117468;130081;198395;524159;524159;67.0;0.0;95.6
11:35:21.564050;1320;157907;117503;130110;198492;524159;524159;67.0;0.0;95.6
11:35:21.574046;1321;158112;117565;130154;198713;524159;524159;67.0;0.0;95.6
11:35:21.581037;1322;158408;117629;130204;199059;524159;524159;67.0;0.0;95.6
11:35:21.587034;1323;158747;117700;130254;199470;524159;524159;67.0;0.0;95.6
11:35:21.591032;1324;159094;117767;130290;199899;524159;524159;67.0;0.0;95.6
11:35:21.758211;1325;159425;117814;130332;200330;524159;524159;67.0;0.0;95.6
11:35:21.766206;1326;159725;117861;130365;200749;524159;524159;67.0;0.0;95.6
11:35:21.779203;1327;160015;117903;130394;201154;524159;524159;67.0;0.0;95.6
11:35:21.785195;1328;160325;117951;130425;201598;524159;524159;67.0;0.0;95.6
11:35:21.789193;1329;160671;118015;130477;202065;524159;524159;67.0;0.0;95.6
11:35:21.964652;1330;161041;118090;130526;202552;524159;524159;67.0;0.0;95.6
11:35:21.979643;1331;161430;118163;130575;203075;524159;524159;67.0;0.0;95.6
11:35:21.990638;1332;161881;118230;130631;203667;524159;524159;67.0;0.0;95.6
11:35:21.993634;1333;162262;118286;130658;204183;524159;524159;67.0;0.0;95.6
11:35:21.997630;1334;162075;118130;130541;204073;524159;524159;67.0;0.0;95.6
11:35:22.159151;1335;161177;117898;130374;203100;524159;524159;67.0;0.0;95.6
11:35:22.173143;1336;160291;117779;130311;202058;524159;524159;67.0;0.0;95.6
11:35:22.179139;1337;159804;117776;130316;201420;524159;524159;67.0;0.0;95.6
11:35:22.183137;1338;159690;117822;130351;201210;524159;524159;67.0;0.0;95.6
11:35:22.189202;1339;159861;117900;130409;201335;524159;524159;67.0;0.0;95.6
11:35:22.359149;1340;160051;117943;130440;201514;524159;524159;67.0;0.0;95.6
11:35:22.369147;1341;160071;117945;130434;201539;524159;524159;67.0;0.0;95.6
11:35:22.377140;1342;159991;117916;130419;201439;524159;524159;67.0;0.0;95.6
11:35:22.383135;1343;159968;117925;130430;201396;524159;524159;67.0;0.0;95.6
11:35:22.390202;1344;160090;117970;130458;201520;524159;524159;67.0;1116.4;95.6
11:35:22.565309;1345;160327;118030;130496;201781;524159;524159;67.0;0.0;95.6
11:35:22.581298;1346;160644;118097;130553;202147;524159;524159;67.0;0.0;95.6
11:35:22.591293;1347;160985;118154;130592;202553;524159;524159;67.0;0.0;95.6
11:35:22.594287;1348;161309;118211;130633;202966;524159;524159;67.0;0.0;95.6
11:35:22.597285;1349;161620;118258;130667;203383;524159;524159;67.0;0.0;95.6
11:35:22.760202;1350;161915;118305;130694;203785;524159;524159;67.0;0.0;95.6
11:35:22.774193;1351;162210;118347;130728;204204;524159;524159;67.0;0.0;95.6
11:35:22.789182;1352;162530;118400;130754;204644;524159;524159;67.0;0.0;95.6
11:35:22.795179;1353;162875;118457;130797;205112;524159;524159;67.0;0.0;95.6
11:35:22.802176;1354;163235;118515;130846;205608;524159;524159;67.0;0.0;95.6
11:35:22.960196;1355;163624;118591;130883;206148;524159;524159;67.0;0.0;95.6
11:35:22.967189;1356;164031;118654;130931;206701;524159;524159;67.0;0.0;95.6
11:35:22.975188;1357;164438;118712;130971;207260;524159;524159;67.0;0.0;95.6
11:35:22.982651;1358;164580;118656;130921;207503;524159;524159;67.0;0.0;95.6
11:35:22.990271;1359;163833;118392;130739;206738;524159;524159;67.0;0.0;95.6
11:35:23.161191;1360;162682;118182;130595;205433;524159;524159;67.0;0.0;95.6
11:35:23.172189;1361;161844;118119;130560;204403;524159;524159;67.0;0.0;95.6
11:35:23.181183;1362;161442;118127;130578;203814;524159;524159;67.0;0.0;95.6
11:35:23.190173;1363;161358;118173;130611;203613;524159;524159;67.0;0.0;95.6
11:35:23.194168;1364;161472;118236;130655;203648;524159;524159;67.0;0.0;95.6
11:35:23.361484;1365;161506;118249;130662;203640;524159;524159;67.0;0.0;95.6
11:35:23.369193;1366;161375;118218;130638;203466;524159;524159;67.0;0.0;95.6
11:35:23.377383;1367;161220;118203;130631;203230;524159;524159;67.0;0.0;95.6
11:35:23.384195;1368;161184;118224;130647;203135;524159;524159;67.0;0.0;95.6
11:35:23.392189;1369;161308;118274;130678;203215;524159;524159;67.0;1005.3;95.6
11:35:23.566660;1370;161536;118327;130720;203436;524159;524159;67.0;0.0;95.6
11:35:23.581651;1371;161815;118384;130764;203739;524159;524159;67.0;0.0;95.6
11:35:23.584647;1372;162132;118438;130800;204071;524159;524159;67.0;0.0;95.6
11:35:23.587644;1373;162436;118488;130837;204414;524159;524159;67.0;0.0;95.6
11:35:23.591612;1374;162703;118523;130858;204752;524159;524159;67.0;0.0;95.6
11:35:23.760370;1375;162977;118565;130880;205085;524159;524159;67.0;0.0;95.6
11:35:23.768175;1376;163257;118602;130906;205419;524159;524159;67.0;0.0;95.6
11:35:23.778171;1377;163560;118662;130946;205812;524159;524159;67.0;0.0;95.6
11:35:23.788166;1378;163879;118712;130987;206225;524159;524159;67.0;0.0;95.6
11:35:23.792677;1379;164225;118779;131028;206666;524159;524159;67.0;0.0;95.6
11:35:23.963471;1380;164592;118842;131073;207143;524159;524159;67.0;0.0;95.6
11:35:23.972467;1381;164977;118899;131111;207653;524159;524159;67.0;0.0;95.6
11:35:23.977463;1382;165377;118963;131159;208157;524159;524159;67.0;0.0;95.6
11:35:23.985137;1383;165657;118969;131151;208517;524159;524159;67.0;0.0;95.6
11:35:23.992177;1384;165160;118742;130975;207997;524159;524159;67.0;0.0;95.6
11:35:24.161228;1385;163986;118474;130803;206647;524159;524159;67.0;0.0;95.6
11:35:24.169189;1386;162935;118360;130740;205337;524159;524159;67.0;0.0;95.6
11:35:24.176184;1387;162353;118343;130728;204514;524159;524159;67.0;0.0;95.6
11:35:24.183207;1388;162151;118374;130757;204108;524159;524159;67.0;0.0;95.6
11:35:24.191135;1389;162214;118433;130797;204023;524159;524159;67.0;0.0;95.6
11:35:24.362182;1390;162293;118459;130818;204009;524159;524159;67.0;0.0;95.6
11:35:24.370183;1391;162188;118426;130785;203833;524159;524159;67.0;0.0;95.6
11:35:24.377178;1392;161990;118387;130764;203527;524159;524159;67.0;941.2;95.6
11:35:24.385173;1393;161886;118389;130764;203323;524159;524159;67.0;0.0;95.6
11:35:24.393618;1394;161924;118423;130792;203288;524159;524159;67.0;0.0;95.6
11:35:24.562064;1395;162111;118469;130817;203430;524159;524159;67.0;0.0;95.6
11:35:24.571057;1396;162377;118526;130863;203700;524159;524159;67.0;0.0;95.6
11:35:24.578187;1397;162653;118571;130896;204013;524159;524159;67.0;0.0;95.6
11:35:24.586191;1398;162937;118623;130923;204326;524159;524159;67.0;0.0;95.6
11:35:24.596709;1399;163205;118653;130953;204647;524159;524159;67.0;0.0;95.6
11:35:24.761663;1400;163446;118687;130972;204955;524159;524159;67.0;0.0;95.6
11:35:24.770660;1401;163683;118718;130992;205255;524159;524159;67.0;0.0;95.6
11:35:24.782650;1402;163965;118759;131018;205598;524159;524159;67.0;0.0;95.6
11:35:24.786647;1403;164279;118814;131059;205960;524159;524159;67.0;0.0;95.6
11:35:24.791644;1404;164619;118870;131101;206368;524159;524159;67.0;0.0;95.6
11:35:24.967678;1405;164990;118931;131146;206834;524159;524159;67.0;0.0;95.6
11:35:24.978668;1406;165385;118994;131192;207333;524159;524159;67.0;0.0;95.6
11:35:24.988663;1407;165742;119027;131203;207756;524159;524159;67.0;0.0;95.6
11:35:24.993658;1408;165445;118855;131081;207447;524159;524159;67.0;0.0;95.6
11:35:24.997655;1409;164429;118617;130917;206233;524159;524159;67.0;0.0;95.6
11:35:25.162362;1410;163454;118494;130847;204985;524159;524159;67.0;0.0;95.6
11:35:25.169360;1411;162902;118490;130851;204174;524159;524159;67.0;0.0;95.6
11:35:25.177192;1412;162766;118551;130898;203831;524159;524159;67.0;0.0;95.6
11:35:25.184505;1413;162907;118618;130954;203840;524159;524159;67.0;0.0;95.6
11:35:25.192361;1414;163027;118648;130991;203874;524159;524159;67.0;0.0;95.6
11:35:25.364179;1415;162931;118630;130970;203677;524159;524159;67.0;0.0;95.6
11:35:25.373178;1416;162716;118596;130949;203339;524159;524159;67.0;0.0;95.6
11:35:25.382172;1417;162581;118597;130950;203074;524159;524159;67.0;980.0;95.6
11:35:25.387167;1418;162614;118636;130978;202985;524159;524159;67.0;0.0;95.6
11:35:25.395363;1419;162771;118681;131020;203074;524159;524159;67.0;0.0;95.6
11:35:25.564180;1420;163008;118733;131055;203280;524159;524159;67.0;0.0;95.6
11:35:25.572175;1421;163269;118782;131086;203521;524159;524159;67.0;0.0;95.6
11:35:25.579178;1422;163524;118830;131123;203791;524159;524159;67.0;0.0;95.6
11:35:25.587176;1423;163747;118865;131137;204051;524159;524159;67.0;0.0;95.6
11:35:25.594623;1424;163966;118898;131168;204301;524159;524159;67.0;0.0;95.6
11:35:25.602362;1425;164162;118935;131191;204539;524159;524159;67.0;0.0;95.6
11:35:25.968184;1426;164411;118971;131224;204815;524159;524159;67.0;0.0;95.6
11:35:25.975654;1427;164685;119029;131257;205145;524159;524159;67.0;0.0;95.6
11:35:25.982553;1428;164995;119084;131307;205525;524159;524159;67.0;0.0;95.6
11:35:25.990006;1429;165311;119132;131332;205921;524159;524159;67.0;0.0;95.6
11:35:25.997384;1430;165224;119032;131257;205848;524159;524159;67.0;0.0;95.6
11:35:26.004353;1431;164180;118761;131063;204611;524159;524159;67.0;0.0;95.6
11:35:26.012613;1432;162914;118569;130938;202992;524159;524159;67.0;0.0;95.6
11:35:26.019355;1433;162039;118507;130913;201730;524159;524159;66.0;0.0;95.6
11:35:26.027353;1434;161609;118508;130916;200979;524159;524159;66.0;0.0;95.6
11:35:26.165175;1435;161542;118554;130943;200667;524159;524159;66.0;0.0;95.6
11:35:26.173169;1436;161606;118588;130969;200570;524159;524159;66.0;0.0;95.6
11:35:26.181196;1437;161508;118560;130957;200348;524159;524159;66.0;0.0;95.6
11:35:26.188174;1438;161248;118522;130920;199924;524159;524159;66.0;0.0;95.6
11:35:26.196168;1439;161015;118494;130906;199526;524159;524159;66.0;0.0;95.6
11:35:26.203180;1440;160945;118496;130916;199316;524159;524159;66.0;0.0;95.6
11:35:26.570436;1441;161023;118535;130935;199302;524159;524159;66.0;0.0;95.6
11:35:26.578169;1442;161212;118575;130960;199435;524159;524159;66.0;1012.9;95.6
11:35:26.586173;1443;161459;118615;130997;199648;524159;524159;66.0;0.0;95.6
11:35:26.593551;1444;161694;118650;131009;199894;524159;524159;66.0;0.0;95.6
11:35:26.600900;1445;161922;118675;131027;200147;524159;524159;66.0;0.0;95.6
11:35:26.607572;1446;162112;118707;131038;200372;524159;524159;66.0;0.0;95.6
11:35:26.615700;1447;162310;118727;131055;200607;524159;524159;66.0;0.0;95.6
11:35:26.623175;1448;162538;118761;131080;200866;524159;524159;66.0;0.0;95.6
11:35:26.629748;1449;162802;118804;131108;201181;524159;524159;66.0;0.0;95.6
11:35:26.637560;1450;163084;118854;131148;201548;524159;524159;66.0;0.0;95.6
11:35:26.970349;1451;163421;118901;131173;201982;524159;524159;66.0;0.0;95.6
11:35:26.977351;1452;163717;118934;131201;202383;524159;524159;66.0;0.0;95.6
11:35:26.984349;1453;163445;118782;131069;202094;524159;524159;65.0;0.0;95.6
11:35:26.992520;1454;162186;118471;130861;200520;524159;524159;65.0;0.0;95.6
11:35:27.000168;1455;160795;118272;130741;198652;524159;524159;65.0;0.0;95.6
11:35:27.007347;1456;159844;118199;130693;197227;524159;524159;65.0;0.0;95.6
11:35:27.014547;1457;159300;118169;130677;196320;524159;524159;65.0;0.0;95.6
11:35:27.021697;1458;159111;118188;130699;195862;524159;524159;65.0;0.0;95.6
11:35:27.028581;1459;159067;118206;130705;195622;524159;524159;65.0;0.0;95.6
11:35:27.036363;1460;158890;118167;130679;195295;524159;524159;65.0;0.0;95.6
11:35:27.372163;1461;158589;118114;130644;194784;524159;524159;65.0;0.0;95.6
11:35:27.379166;1462;158333;118087;130622;194332;524159;524159;65.0;0.0;95.6
11:35:27.387162;1463;158246;118093;130633;194111;524159;524159;65.0;0.0;95.6
11:35:27.396195;1464;158316;118115;130648;194126;524159;524159;65.0;0.0;95.6
11:35:27.403115;1465;158484;118150;130669;194269;524159;524159;65.0;0.0;95.6
11:35:27.411173;1466;158712;118182;130683;194497;524159;524159;65.0;0.0;95.6
11:35:27.418348;1467;158917;118209;130701;194748;524159;524159;65.0;965.7;95.6
11:35:27.425996;1468;159124;118234;130712;195003;524159;524159;65.0;0.0;95.6
11:35:27.433172;1469;159302;118246;130726;195240;524159;524159;65.0;0.0;95.6
11:35:27.440292;1470;159523;118269;130731;195521;524159;524159;65.0;0.0;95.6
11:35:27.768786;1471;159776;118289;130744;195843;524159;524159;65.0;0.0;95.6
11:35:27.778510;1472;160069;118336;130774;196216;524159;524159;65.0;0.0;95.6
11:35:27.778510;1473;160423;118384;130799;196683;524159;524159;65.0;0.0;95.6
11:35:27.793669;1474;160819;118418;130818;197204;524159;524159;65.0;0.0;95.6
11:35:27.798708;1475;161176;118440;130825;197667;524159;524159;65.0;0.0;95.6
11:35:27.808762;1476;160855;118254;130678;197298;524159;524159;65.0;0.0;95.6
11:35:27.808762;1477;159652;117963;130482;195787;524159;524159;65.0;0.0;95.6
11:35:27.818645;1478;158442;117797;130382;194154;524159;524159;64.0;0.0;95.6
11:35:27.828932;1479;157678;117745;130361;193038;524159;524159;64.0;0.0;95.6
11:35:27.838837;1480;157338;117757;130366;192430;524159;524159;64.0;0.0;95.6
11:35:28.168661;1481;157332;117779;130389;192275;524159;524159;64.0;0.0;95.6
11:35:28.178540;1482;157401;117799;130415;192253;524159;524159;64.0;0.0;95.6
11:35:28.188644;1483;157319;117760;130375;192080;524159;524159;64.0;0.0;95.6
11:35:28.193813;1484;157124;117720;130340;191774;524159;524159;64.0;0.0;95.6
11:35:28.198861;1485;157001;117697;130331;191575;524159;524159;64.0;0.0;95.6
11:35:28.208943;1486;157056;117714;130344;191610;524159;524159;64.0;0.0;95.6
11:35:28.218474;1487;157247;117747;130354;191813;524159;524159;64.0;0.0;95.6
11:35:28.218474;1488;157513;117778;130375;192129;524159;524159;64.0;0.0;95.6
11:35:28.228435;1489;157828;117813;130392;192509;524159;524159;64.0;894.4;95.6
11:35:28.238430;1490;158137;117836;130409;192910;524159;524159;64.0;0.0;95.6
11:35:28.358767;1491;158414;117872;130426;193280;524159;524159;64.0;0.0;95.6
11:35:28.368462;1492;158661;117904;130448;193629;524159;524159;64.0;0.0;95.6
11:35:28.378674;1493;158923;117939;130489;194003;524159;524159;64.0;0.0;95.6
11:35:28.388689;1494;159250;118003;130527;194447;524159;524159;64.0;0.0;95.6
11:35:28.393740;1495;159603;118068;130578;194958;524159;524159;64.0;0.0;95.6
11:35:28.560568;1496;160013;118136;130634;195539;524159;524159;64.0;0.0;95.6
11:35:28.578446;1497;160254;118125;130626;195938;524159;524159;64.0;0.0;95.6
11:35:28.578446;1498;159745;117936;130487;195394;524159;524159;64.0;0.0;95.5
11:35:28.594118;1499;158725;117731;130347;194157;524159;524159;64.0;0.0;95.5
11:35:28.598639;1500;157934;117648;130306;193109;524159;524159;64.0;0.0;95.5
11:35:28.758835;1501;157579;117660;130319;192553;524159;524159;64.0;0.0;95.5
11:35:28.778764;1502;157613;117710;130361;192512;524159;524159;64.0;0.0;95.5
11:35:28.783771;1503;157844;117774;130413;192746;524159;524159;64.0;0.0;95.5
11:35:28.793846;1504;157914;117770;130406;192857;524159;524159;64.0;0.0;95.5
11:35:28.798874;1505;157801;117738;130386;192712;524159;524159;64.0;0.0;95.5
11:35:28.958731;1506;157702;117717;130378;192567;524159;524159;64.0;0.0;95.5
11:35:28.973427;1507;157722;117736;130403;192578;524159;524159;64.0;0.0;95.5
11:35:28.978492;1508;157898;117787;130442;192798;524159;524159;63.0;0.0;95.5
11:35:28.988803;1509;158166;117849;130481;193145;524159;524159;63.0;0.0;95.5
11:35:28.993692;1510;158495;117903;130520;193576;524159;524159;63.0;0.0;95.5
11:35:29.158560;1511;158827;117959;130552;194031;524159;524159;63.0;0.0;95.5
11:35:29.173706;1512;159125;118005;130592;194478;524159;524159;63.0;917.9;95.5
11:35:29.178786;1513;159413;118046;130620;194914;524159;524159;63.0;0.0;95.5
11:35:29.193982;1514;159700;118092;130664;195349;524159;524159;63.0;0.0;95.5
11:35:29.198503;1515;160021;118136;130700;195845;524159;524159;63.0;0.0;95.5
11:35:29.358808;1516;160180;118128;130679;196137;524159;524159;63.0;0.0;95.5
11:35:29.368559;1517;159630;117945;130547;195521;524159;524159;63.0;0.0;95.5
11:35:29.378929;1518;158650;117757;130430;194313;524159;524159;63.0;0.0;95.5
11:35:29.388803;1519;157899;117698;130398;193342;524159;524159;63.0;0.0;95.5
11:35:29.398893;1520;157572;117688;130408;192847;524159;524159;63.0;0.0;95.5
11:35:29.568540;1521;157629;117749;130438;192806;524159;524159;63.0;0.0;95.5
11:35:29.578593;1522;157830;117805;130482;192976;524159;524159;63.0;0.0;95.5
11:35:29.578593;1523;157895;117797;130480;193029;524159;524159;63.0;0.0;95.5
11:35:29.588487;1524;157770;117761;130459;192857;524159;524159;63.0;0.0;95.5
11:35:29.598538;1525;157659;117757;130467;192709;524159;524159;63.0;0.0;95.5
11:35:29.768920;1526;157680;117780;130487;192738;524159;524159;63.0;0.0;95.5
11:35:29.773426;1527;157836;117823;130515;192920;524159;524159;63.0;0.0;95.5
11:35:29.778501;1528;158088;117876;130553;193233;524159;524159;63.0;0.0;95.5
11:35:29.788706;1529;158376;117929;130594;193601;524159;524159;63.0;0.0;95.5
11:35:29.798606;1530;158675;117979;130621;194001;524159;524159;63.0;0.0;95.5
11:35:29.968533;1531;158969;118011;130648;194409;524159;524159;63.0;0.0;95.5
11:35:29.968533;1532;159233;118051;130675;194801;524159;524159;63.0;0.0;95.5
11:35:29.978534;1533;159501;118091;130706;195197;524159;524159;63.0;0.0;95.5
11:35:29.988903;1534;159817;118133;130737;195640;524159;524159;63.0;0.0;95.5
11:35:29.998499;1535;160086;118158;130750;196049;524159;524159;63.0;914.7;95.5
11:35:30.168529;1536;159680;117977;130618;195649;524159;524159;63.0;0.0;95.5
11:35:30.173536;1537;158484;117718;130438;194250;524159;524159;63.0;0.0;95.5
11:35:30.178583;1538;157302;117562;130343;192771;524159;524159;63.0;0.0;95.5
11:35:30.188511;1539;156546;117520;130312;191791;524159;524159;63.0;0.0;95.5
11:35:30.198489;1540;156178;117504;130310;191252;524159;524159;63.0;0.0;95.5
11:35:30.368734;1541;156097;117531;130328;191097;524159;524159;63.0;0.0;95.5
11:35:30.379030;1542;156104;117536;130339;191080;524159;524159;63.0;0.0;95.5
11:35:30.388602;1543;155988;117499;130309;190952;524159;524159;63.0;0.0;95.5
11:35:30.395139;1544;155787;117469;130279;190713;524159;524159;63.0;0.0;95.5
11:35:30.398666;1545;155687;117463;130275;190582;524159;524159;63.0;0.0;95.5
11:35:30.568636;1546;155743;117491;130303;190645;524159;524159;63.0;0.0;95.5
11:35:30.573644;1547;155926;117535;130330;190875;524159;524159;63.0;0.0;95.5
11:35:30.578685;1548;156193;117578;130350;191229;524159;524159;63.0;0.0;95.4
11:35:30.593487;1549;156468;117616;130374;191591;524159;524159;63.0;0.0;95.4
11:35:30.598578;1550;156738;117645;130406;191978;524159;524159;63.0;0.0;95.4
11:35:30.768702;1551;157006;117677;130418;192358;524159;524159;63.0;0.0;95.4
11:35:30.768702;1552;157263;117712;130441;192750;524159;524159;63.0;0.0;95.4
11:35:30.778797;1553;157542;117748;130464;193168;524159;524159;63.0;0.0;95.4
11:35:30.788710;1554;157871;117798;130495;193645;524159;524159;63.0;0.0;95.4
11:35:30.798770;1555;158221;117846;130526;194142;524159;524159;63.0;0.0;95.4
11:35:30.968557;1556;158603;117903;130562;194685;524159;524159;63.0;859.6;95.4
11:35:30.968557;1557;158998;117961;130599;195258;524159;524159;63.0;0.0;95.4
11:35:30.978651;1558;159403;118020;130640;195848;524159;524159;63.0;0.0;95.4
11:35:30.988635;1559;159812;118071;130681;196456;524159;524159;63.0;0.0;95.4
11:35:30.998678;1560;160228;118131;130713;197064;524159;524159;63.0;0.0;95.4
11:35:31.168482;1561;160412;118085;130678;197426;524159;524159;63.0;0.0;95.4
11:35:31.178686;1562;159583;117796;130464;196570;524159;524159;63.0;0.0;95.4
11:35:31.178686;1563;158187;117527;130293;194940;524159;524159;63.0;0.0;95.4
11:35:31.193478;1564;157035;117406;130224;193520;524159;524159;63.0;0.0;95.4
11:35:31.198549;1565;156313;117360;130195;192591;524159;524159;63.0;0.0;95.4
11:35:31.368430;1566;155916;117350;130188;192032;524159;524159;63.0;0.0;95.4
11:35:31.368430;1567;155806;117368;130203;191832;524159;524159;63.0;0.0;95.4
11:35:31.378561;1568;155744;117375;130211;191693;524159;524159;63.0;0.0;95.4
11:35:31.388563;1569;155572;117335;130172;191470;524159;524159;63.0;0.0;95.4
11:35:31.398647;1570;155372;117298;130149;191209;524159;524159;63.0;0.0;95.4
11:35:31.578627;1571;155280;117302;130149;191087;524159;524159;63.0;0.0;95.4
11:35:31.588779;1572;155363;117334;130171;191172;524159;524159;63.0;0.0;95.4
11:35:31.595184;1573;155567;117375;130193;191428;524159;524159;63.0;0.0;95.4
11:35:31.598710;1574;155833;117417;130226;191772;524159;524159;63.0;0.0;95.4
11:35:31.598710;1575;156119;117455;130243;192146;524159;524159;63.0;757.4;95.4
11:35:31.768886;1576;156383;117490;130265;192530;524159;524159;63.0;0.0;95.4
11:35:31.778663;1577;156638;117518;130277;192905;524159;524159;63.0;0.0;95.4
11:35:31.788838;1578;156895;117545;130295;193290;524159;524159;63.0;0.0;95.4
11:35:31.798819;1579;157184;117588;130316;193721;524159;524159;63.0;0.0;95.4
11:35:31.798819;1580;157523;117631;130347;194203;524159;524159;63.0;0.0;95.4
11:35:31.968836;1581;157871;117689;130384;194726;524159;524159;63.0;0.0;95.4
11:35:31.978859;1582;158278;117750;130426;195297;524159;524159;63.0;0.0;95.4
11:35:31.978859;1583;158678;117809;130468;195870;524159;524159;63.0;0.0;95.4
11:35:31.988892;1584;159102;117870;130505;196463;524159;524159;63.0;0.0;95.4
11:35:31.998640;1585;159533;117932;130550;197067;524159;524159;63.0;0.0;95.4
11:35:32.168550;1586;159948;117978;130582;197660;524159;524159;63.0;0.0;95.4
11:35:32.188639;1587;159976;117893;130500;197810;524159;524159;63.0;0.0;95.4
11:35:32.195990;1588;159071;117607;130311;196837;524159;524159;64.0;0.0;95.4
11:35:32.198519;1589;157844;117403;130177;195401;524159;524159;64.0;0.0;95.4
11:35:32.198519;1590;156982;117336;130136;194316;524159;524159;64.0;0.0;95.4
11:35:32.368780;1591;156518;117324;130142;193672;524159;524159;64.0;0.0;95.4
11:35:32.378688;1592;156396;117350;130154;193419;524159;524159;64.0;0.0;95.4
11:35:32.378688;1593;156458;117372;130182;193388;524159;524159;64.0;0.0;95.4
11:35:32.398506;1594;156447;117373;130176;193331;524159;524159;64.0;779.1;95.4
11:35:32.408552;1595;156295;117336;130142;193147;524159;524159;64.0;0.0;95.4
11:35:32.568534;1596;156125;117321;130135;192975;524159;524159;64.0;0.0;95.4
11:35:32.578643;1597;156135;117353;130155;192997;524159;524159;64.0;0.0;95.4
11:35:32.578643;1598;156322;117401;130181;193181;524159;524159;64.0;0.0;95.4
11:35:32.588856;1599;156585;117447;130212;193482;524159;524159;64.0;0.0;95.4
11:35:32.598665;1600;156874;117491;130243;193851;524159;524159;64.0;0.0;95.4
11:35:32.768789;1601;157169;117531;130267;194247;524159;524159;64.0;0.0;95.4
11:35:32.778653;1602;157458;117564;130290;194662;524159;524159;64.0;0.0;95.4
11:35:32.788834;1603;157730;117609;130314;195053;524159;524159;64.0;0.0;95.4
11:35:32.796632;1604;158030;117656;130351;195474;524159;524159;64.0;0.0;95.4
11:35:32.798655;1605;158359;117701;130379;195927;524159;524159;64.0;0.0;95.4
11:35:32.968552;1606;158707;117754;130409;196390;524159;524159;64.0;0.0;95.4
11:35:32.978634;1607;158836;117718;130380;196629;524159;524159;64.0;0.0;95.4
11:35:32.978634;1608;158215;117509;130228;195990;524159;524159;64.0;0.0;95.4
11:35:32.988607;1609;157269;117338;130115;194912;524159;524159;64.0;0.0;95.4
11:35:32.998787;1610;156587;117281;130083;194064;524159;524159;64.0;0.0;95.4
11:35:33.168557;1611;156300;117285;130086;193621;524159;524159;64.0;0.0;95.4
11:35:33.178713;1612;156373;117335;130118;193607;524159;524159;64.0;0.0;95.4
11:35:33.188810;1613;156576;117388;130168;193790;524159;524159;64.0;0.0;95.4
11:35:33.188810;1614;156659;117378;130153;193874;524159;524159;64.0;0.0;95.4
11:35:33.198550;1615;156609;117352;130126;193825;524159;524159;64.0;0.0;95.4
11:35:33.368650;1616;156569;117359;130127;193799;524159;524159;64.0;0.0;95.4
11:35:33.388673;1617;156657;117386;130154;193919;524159;524159;64.0;0.0;95.4
11:35:33.396674;1618;156877;117424;130184;194176;524159;524159;64.0;0.0;95.4
11:35:33.398704;1619;157171;117486;130211;194540;524159;524159;64.0;0.0;95.4
11:35:33.398704;1620;157501;117534;130249;194972;524159;524159;64.0;1026.9;95.4
11:35:33.568619;1621;157853;117584;130291;195444;524159;524159;64.0;0.0;95.4
11:35:33.578719;1622;158181;117638;130325;195902;524159;524159;64.0;0.0;95.4
11:35:33.588629;1623;158505;117683;130341;196342;524159;524159;65.0;0.0;95.4
11:35:33.598458;1624;158836;117724;130373;196797;524159;524159;65.0;0.0;95.4
11:35:33.603465;1625;159041;117719;130364;197134;524159;524159;65.0;0.0;95.4
11:35:33.768556;1626;158623;117542;130237;196731;524159;524159;65.0;0.0;95.4
