293
295
300
300
295
303
311
308
306
315
327
323
297
307
320
306
296
303
306
279
268
279
271
259
254
258
256
240
236
241
237
223
234
262
294
316
305
294
265
216
171
191
216
224
230
237
236
230
236
242
246
240
230
238
234
240
242
246
241
246
251
243
247
252
253
248
252
270
261
266
255
250
257
250
268
264
259
250
260
262
273
263
213
227
218
191
223
199
165
136
133
128
123
129
109
77
78
62
76
101
83
69
82
81
66
73
93
86
81
85
92
88
100
106
99
119
104
108
115
119
132
145
154
146
153
179
189
188
198
195
199
200
206
221
223
225
223
236
254
253
259
273
270
278
296
295
297
312
312
331
310
298
280
272
256
233
243
282
319
321
330
322
328
336
336
315
287
274
240
218
241
294
330
311
256
233
248
273
286
301
294
305
294
298
346
393
422
456
489
493
478
468
500
535
537
503
458
391
381
432
464
454
450
460
457
443
425
439
467
483
488
493
497
478
446
422
422
451
476
484
493
486
486
490
488
494
498
512
536
550
558
559
550
550
564
585
594
593
596
596
579
543
536
560
563
538
559
610
636
637
639
639
639
638
637
638
639
639
639
639
638
637
636
631
621
613
606
605
598
586
582
581
578
584
590
585
579
579
576
559
534
541
564
577
576
576
579
574
560
555
551
540
524
524
535
539
537
537
530
518
511
509
501
485
474
466
457
441
433
432
428
422
420
423
419
411
408
407
399
389
387
386
379
374
374
376
372
367
369
369
364
361
362
362
359
356
360
361
359
358
363
365
360
364
366
363
364
368
368
365
364
368
367
364
365
369
367
365
366
369
367
364
367
370
371
371
375
376
373
368
374
377
373
367
367
362
350
344
346
345
340
338
341
341
337
334
334
337
343
362
397
423
411
385
358
319
281
293
318
324
321
322
324
321
317
318
320
315
317
320
316
314
316
318
315
312
314
316
312
310
315
316
312
312
319
319
315
316
321
321
321
324
330
330
329
331
337
337
335
337
340
336
331
327
323
313
301
295
290
280
271
270
269
264
260
262
263
259
257
260
260
257
255
258
260
257
257
260
260
257
257
259
253
252
254
251
247
248
250
248
245
249
253
252
251
252
256
254
254
256
260
259
256
262
263
259
256
258
260
256
255
259
259
256
256
259
260
256
256
259
259
257
257
262
262
259
261
265
263
259
261
266
266
263
268
272
269
268
272
274
270
270
276
282
279
273
270
264
262
270
274
260
257
264
267
265
266
270
270
267
274
296
325
353
358
340
310
279
239
235
262
278
281
282
280
279
281
285
283
281
286
289
286
284
289
292
291
290
294
296
294
295
301
303
300
299
304
306
305
307
312
315
314
316
322
325
325
331
336
336
340
345
344
340
340
338
331
321
316
311
301
294
292
290
284
281
283
284
280
280
282
284
282
282
287
287
284
284
288
288
286
287
290
290
288
290
293
291
288
290
294
293
291
293
296
294
291
294
296
294
292
295
298
295
293
297
298
296
294
298
300
298
299
304
303
304
306
309
308
312
319
318
311
306
305
304
301
303
305
304
302
305
309
307
304
307
311
307
306
321
347
370
381
367
346
320
283
260
279
305
314
319
320
319
317
321
323
320
321
326
326
324
324
329
330
327
329
333
332
331
334
338
338
336
340
344
344
349
355
354
352
359
364
365
367
372
376
375
374
379
380
375
372
370
363
351
342
339
332
322
320
320
319
313
314
317
315
311
312
316
316
314
316
319
317
314
317
321
321
318
319
322
319
319
324
323
319
319
322
324
320
319
323
324
321
321
324
324
321
322
326
322
323
326
326
323
323
326
327
324
327
330
328
326
330
335
332
329
335
340
335
334
339
344
345
344
345
340
331
327
329
331
328
329
332
332
327
328
332
333
328
328
336
347
366
396
417
400
374
349
314
291
308
330
339
337
334
336
339
336
334
338
341
339
337
343
339
338
343
345
343
343
346
348
344
346
353
352
348
351
357
358
356
359
365
368
367
370
378
377
375
378
384
383
380
381
383
375
367
362
358
347
339
336
334
327
325
324
322
319
319
323
323
319
318
322
323
320
320
325
324
320
320
323
324
320
322
328
323
321
325
325
322
324
327
323
320
324
326
323
320
323
325
323
321
324
325
321
320
324
325
322
321
324
325
321
323
326
324
319
321
324
324
319
321
326
325
325
327
328
330
327
328
331
331
332
338
340
332
324
323
322
318
317
320
323
319
318
321
323
318
318
322
327
342
372
404
398
374
354
324
280
282
312
323
324
323
326
324
322
324
327
325
323
325
328
326
324
327
331
329
327
331
334
331
330
335
338
336
337
341
343
341
343
348
351
350
352
356
360
359
361
367
367
365
367
370
368
362
358
354
345
334
329
326
319
312
313
308
305
308
309
306
304
308
310
307
306
311
313
310
309
312
313
311
312
315
314
311
311
316
314
311
310
315
316
312
312
316
314
310
312
316
315
311
314
316
314
312
317
321
319
315
321
325
322
321
326
330
330
330
330
324
315
313
315
315
312
313
318
317
313
317
317
314
315
321
330
348
379
399
381
354
330
295
273
294
318
327
323
320
323
325
322
321
324
327
325
324
329
330
327
327
332
332
329
331
336
336
333
335
340
342
339
341
346
347
346
350
355
355
355
359
364
364
363
367
370
367
365
366
366
357
347
342
326
320
319
317
312
309
311
311
308
306
310
311
308
308
312
312
310
311
315
314
311
312
315
315
312
313
316
314
312
314
318
315
314
316
318
314
312
316
318
314
313
317
317
314
313
316
316
311
313
317
320
318
318
322
324
321
322
326
327
327
331
335
328
318
319
316
312
314
318
316
314
316
319
316
315
318
320
322
336
365
398
399
374
351
320
277
278
310
325
323
323
325
326
323
324
328
327
325
326
329
329
326
327
331
330
328
331
335
335
333
336
339
338
339
343
347
344
344
350
353
352
355
359
363
361
362
366
368
364
367
366
358
352
349
341
330
324
323
318
311
309
311
309
305
306
309
307
305
309
312
310
306
309
313
310
308
311
314
312
310
314
315
312
311
314
315
310
311
315
316
313
312
314
314
311
314
316
316
312
313
318
316
312
313
317
316
312
315
318
316
314
316
317
315
317
319
316
315
319
322
319
319
325
327
323
324
329
329
326
329
335
339
334
329
326
322
317
316
319
319
316
318
321
320
318
319
322
320
319
333
360
387
402
388
363
334
294
273
298
320
326
331
339
329
320
325
329
327
328
333
333
331
332
336
337
333
340
341
338
341
346
346
343
346
351
351
349
353
357
357
358
362
370
373
362
362
369
369
368
372
374
369
367
368
364
354
345
342
336
326
321
323
320
315
315
323
318
306
307
314
315
313
315
318
317
314
316
319
317
315
317
321
319
317
318
325
324
309
310
316
314
318
318
314
315
318
319
315
315
319
319
315
316
322
329
316
311
316
317
318
321
326
324
323
325
329
328
327
332
338
333
325
323
327
325
309
309
315
315
314
317
319
316
315
319
323
317
317
336
366
391
388
360
336
311
281
274
300
322
327
331
330
327
330
332
330
333
337
335
336
343
336
330
333
338
342
339
339
344
347
344
345
349
351
349
350
356
358
356
358
364
367
366
367
372
374
373
380
377
365
362
364
364
354
343
339
337
329
321
321
322
318
314
315
318
314
313
316
318
315
314
324
319
308
310
317
320
315
319
320
316
316
319
319
313
314
317
317
313
314
317
315
312
313
317
321
316
309
313
316
316
318
321
321
322
322
324
322
324
330
331
322
315
316
316
311
309
313
315
312
311
316
314
309
311
316
315
312
323
351
374
383
367
347
321
285
259
280
308
316
319
322
319
322
325
322
320
324
327
324
324
327
329
326
326
331
332
330
330
335
336
333
335
339
340
339
341
347
347
345
349
354
356
354
358
363
362
359
360
363
359
355
350
347
335
327
323
320
312
307
310
309
306
303
306
308
305
305
309
310
306
307
311
311
308
309
312
309
310
313
312
310
311
314
311
308
310
314
312
308
310
313
311
309
312
314
311
309
311
313
310
309
313
314
311
311
315
317
315
314
318
320
319
319
324
326
325
331
335
330
320
318
320
316
312
314
319
316
314
316
318
316
314
316
318
319
330
355
387
397
356
331
290
275
301
319
321
322
324
324
321
322
326
326
324
325
328
327
325
328
332
330
328
331
334
332
330
334
339
338
336
340
345
342
342
347
352
351
352
356
360
359
359
364
366
361
362
365
364
358
354
351
344
334
329
327
322
315
314
316
315
311
312
315
310
313
316
313
311
313
317
314
311
314
317
313
311
314
317
313
313
316
318
315
314
318
318
314
313
316
318
315
315
319
318
313
314
318
318
316
316
320
319
315
318
321
319
316
318
322
320
317
322
327
322
321
326
329
325
325
330
336
336
331
328
323
317
314
319
316
316
319
318
317
317
320
319
314
318
333
352
379
403
392
366
337
304
281
297
315
323
328
324
321
324
328
324
322
327
330
327
326
328
329
325
327
333
335
331
329
335
338
334
335
341
341
340
342
345
345
345
348
355
355
354
358
363
363
361
364
369
365
360
358
348
338
335
332
321
314
314
314
307
305
309
309
305
304
308
308
306
305
309
309
306
307
312
312
308
308
312
311
307
310
315
312
309
312
316
312
307
312
315
312
309
313
314
310
310
314
315
312
310
314
316
312
313
319
320
316
317
322
323
320
322
328
330
331
330
322
314
314
316
317
314
316
319
317
316
317
320
316
315
317
323
333
355
390
405
380
350
324
286
271
299
320
324
321
321
323
326
328
328
322
321
320
324
328
329
327
329
335
334
331
335
339
338
336
340
345
343
342
347
350
348
348
354
358
356
357
365
363
362
367
370
365
364
365
362
350
343
338
331
323
320
319
316
311
312
314
312
309
312
315
312
311
313
315
312
310
313
315
312
311
314
316
311
310
314
316
312
313
318
317
312
312
317
317
313
312
317
316
312
314
315
315
312
314
317
316
313
315
318
316
317
320
317
314
317
320
317
315
319
325
322
320
323
327
324
322
327
329
329
332
335
329
320
316
318
317
314
315
319
317
314
316
320
318
314
315
320
327
346
375
404
390
358
337
309
273
283
313
327
326
322
325
328
324
323
327
329
326
326
328
331
327
328
332
329
331
336
337
334
336
341
340
338
341
346
346
344
347
352
353
353
356
361
361
359
361
365
362
360
363
363
355
347
343
338
328
321
320
318
311
307
310
310
306
306
310
309
306
307
311
311
307
309
314
313
309
310
314
312
309
312
315
312
309
312
313
312
312
316
312
310
313
315
312
309
313
315
312
311
315
318
315
315
321
323
319
320
325
326
327
331
332
324
315
314
316
313
309
312
315
312
310
312
315
312
311
315
318
323
339
370
397
379
353
332
299
268
286
315
323
321
320
324
325
322
324
327
327
325
326
331
331
330
334
334
332
336
339
336
335
338
342
341
339
343
347
346
346
351
356
355
356
361
364
362
360
365
367
364
363
365
361
351
344
340
334
324
320
320
316
311
310
313
311
308
310
314
312
308
311
314
312
310
313
317
313
311
313
316
313
311
315
316
313
312
315
312
310
314
316
312
312
315
315
312
312
316
315
312
313
317
316
312
313
319
320
319
320
322
322
321
324
328
327
328
335
337
330
321
320
320
316
314
318
321
316
315
320
320
317
318
322
322
324
341
371
402
396
371
347
313
273
283
314
325
324
325
329
327
323
329
328
326
329
332
330
329
333
336
332
332
335
339
336
336
340
343
339
340
346
348
346
347
353
355
354
357
363
364
361
363
368
368
365
366
368
364
355
350
345
335
326
324
322
316
312
313
313
309
308
311
312
308
308
311
312
309
309
312
313
309
309
313
314
311
315
315
312
312
315
314
311
312
316
313
311
313
316
314
310
313
315
312
311
315
317
314
312
316
318
315
313
317
318
315
314
318
319
315
315
320
321
317
316
321
321
318
321
327
327
323
327
332
330
326
330
342
344
332
327
326
319
315
317
320
318
317
320
319
318
321
324
320
319
332
353
376
400
393
364
335
305
284
294
309
319
327
328
326
327
331
330
329
330
335
333
330
334
338
336
333
336
341
340
337
341
345
343
342
346
351
350
355
351
348
349
355
362
363
362
364
367
367
366
369
372
371
366
367
366
360
349
350
334
319
318
321
318
314
314
318
316
313
315
319
317
315
318
322
317
316
323
330
315
310
318
322
320
319
322
323
320
319
323
321
318
320
324
323
317
321
327
315
309
314
321
319
317
320
322
320
317
320
323
321
320
323
327
325
323
328
334
335
323
324
332
333
334
329
319
318
321
321
317
318
321
321
319
322
328
316
314
317
322
333
355
381
390
368
345
324
293
271
292
327
339
323
318
326
332
330
329
334
336
333
334
337
337
335
335
339
340
343
341
337
338
337
342
348
348
345
348
354
353
351
355
361
362
362
366
373
363
361
368
368
365
365
362
354
347
344
338
329
323
323
326
319
307
309
313
310
310
314
316
311
312
317
318
313
315
323
320
307
310
318
321
317
317
319
317
316
319
320
317
315
320
328
316
308
314
319
315
311
316
320
319
318
323
323
320
322
332
334
318
326
331
328
324
324
318
313
315
317
317
314
316
320
318
318
318
314
311
311
318
332
349
369
378
364
341
318
290
271
287
313
324
322
323
330
325
321
321
324
329
328
325
327
332
331
326
329
334
331
329
332
337
335
337
341
335
332
335
343
348
345
344
350
357
352
358
362
359
358
360
360
355
353
353
346
338
337
324
314
309
309
312
310
304
303
308
306
303
305
309
308
305
306
310
309
307
308
310
307
306
312
319
305
298
304
309
308
306
309
309
306
306
309
309
304
304
308
308
305
305
309
309
306
307
311
310
309
313
312
311
317
322
319
313
311
309
305
301
304
306
306
310
306
300
298
300
306
308
305
304
316
333
349
367
362
344
321
293
265
273
298
309
314
314
310
313
317
316
314
315
319
318
316
318
321
319
317
321
325
323
322
325
328
326
325
329
333
330
330
336
338
337
343
346
344
346
351
351
348
350
353
352
346
345
343
336
326
320
319
312
307
307
308
304
302
304
306
303
301
304
306
304
303
306
307
303
303
307
308
306
304
309
310
306
305
310
310
306
306
310
309
307
308
312
310
308
309
312
311
307
308
311
309
307
309
312
307
310
314
311
309
312
313
310
310
313
315
311
311
315
316
312
312
316
319
318
319
321
322
319
321
326
327
325
331
335
328
319
317
319
316
313
315
318
317
314
317
320
317
314
318
321
323
336
363
390
379
359
344
318
284
292
317
327
324
324
327
327
324
324
329
326
327
331
331
328
331
335
335
332
334
339
336
333
336
341
340
338
343
346
345
344
349
354
352
353
361
364
361
361
367
366
362
362
367
365
357
351
349
341
331
328
327
322
315
314
318
315
310
311
315
313
310
313
317
313
310
313
316
313
312
315
317
314
317
318
314
313
317
319
315
315
318
319
315
315
319
318
316
316
320
318
314
316
320
318
315
317
321
318
315
318
322
319
316
318
320
318
317
321
323
319
318
321
323
320
318
321
323
319
320
322
323
321
320
324
324
320
321
326
325
321
322
326
325
321
323
327
321
323
326
324
321
324
327
324
321
324
328
325
323
326
328
324
323
327
328
324
323
328
328
325
328
332
332
330
332
336
336
333
335
343
344
337
332
329
324
319
322
325
324
322
324
327
323
322
325
327
322
324
338
362
392
404
388
364
334
297
288
311
324
327
329
325
325
331
332
328
329
332
331
328
330
334
333
332
334
337
335
334
336
340
339
338
341
345
343
343
347
350
350
350
356
361
360
360
366
369
367
366
369
370
366
365
366
361
352
345
342
335
325
321
321
317
312
312
315
311
307
310
312
310
307
310
313
309
310
313
309
307
311
313
310
309
312
313
310
310
314
314
310
310
314
315
310
310
315
315
312
312
315
315
310
311
315
314
311
314
317
314
312
314
317
315
312
316
318
315
312
316
318
315
313
316
317
314
314
318
319
315
315
319
318
316
316
321
320
316
316
320
315
318
322
320
316
317
321
319
317
321
323
321
318
321
324
321
319
323
325
321
319
324
325
321
320
325
326
321
320
325
327
326
326
329
330
331
333
335
335
336
341
343
336
328
324
324
321
317
320
325
322
319
321
323
321
319
321
325
331
349
384
413
394
362
305
275
293
320
328
326
324
328
327
324
325
329
330
327
327
331
332
328
330
335
334
331
333
337
336
334
338
343
341
339
344
347
345
345
351
356
354
354
360
365
364
364
369
369
366
366
369
369
363
357
356
349
337
330
328
321
314
312
314
310
305
305
309
307
306
308
306
304
308
311
307
305
308
310
308
306
309
311
308
308
312
312
308
308
311
313
309
308
312
312
308
309
314
312
308
309
314
312
309
310
314
312
309
311
315
312
309
312
315
313
310
313
315
314
312
316
316
313
312
317
318
314
313
318
319
316
315
320
315
315
320
320
315
316
320
320
315
316
321
320
317
319
322
320
318
320
323
321
318
322
325
323
321
324
326
322
320
323
325
322
322
328
330
325
326
334
337
331
331
339
343
338
334
332
326
319
319
323
323
320
321
325
323
319
322
324
321
323
339
367
399
409
357
324
284
279
309
323
326
329
330
325
325
331
332
329
328
332
332
329
330
335
334
332
333
337
337
336
337
341
340
338
342
346
344
343
347
352
351
351
357
362
361
361
367
370
367
366
370
371
366
364
365
360
348
340
337
330
320
315
315
312
306
306
309
307
304
308
307
304
306
310
309
306
308
311
308
306
310
314
310
308
312
314
311
309
313
314
310
309
313
315
311
310
313
313
311
310
314
315
310
310
315
313
310
312
315
314
310
312
316
313
310
313
317
315
311
314
317
314
312
316
317
314
313
317
319
315
313
320
317
316
320
321
318
316
320
320
316
317
321
320
316
317
320
319
316
317
321
320
317
320
324
322
322
325
326
325
326
329
332
331
332
338
342
334
326
324
322
317
317
321
322
318
319
323
323
318
319
323
324
330
352
388
412
393
363
336
298
269
291
321
326
325
329
328
325
327
331
329
327
331
334
331
330
335
336
333
334
338
339
336
336
341
344
342
343
349
349
347
349
356
357
354
358
364
364
363
366
372
371
369
370
373
368
362
360
355
344
334
329
325
317
311
312
312
306
304
307
308
304
303
307
308
305
306
311
310
306
310
309
307
308
312
311
307
308
312
310
306
307
311
309
306
308
311
308
305
308
311
308
306
309
312
308
306
310
312
308
307
311
313
310
310
313
312
308
309
315
314
310
310
314
313
310
312
316
314
310
312
316
315
312
314
318
315
311
315
318
314
314
317
316
314
317
319
316
315
319
320
317
317
320
321
318
318
322
323
320
322
328
326
323
327
333
332
329
332
339
339
333
330
327
321
316
318
322
320
318
320
323
320
318
321
322
320
327
350
382
409
401
374
344
305
271
287
315
322
324
327
325
321
323
327
326
323
330
329
326
329
333
331
330
332
336
333
333
336
340
337
336
341
344
342
343
348
351
349
351
358
360
360
362
368
369
366
367
372
371
366
365
363
356
345
338
334
325
316
314
314
309
304
305
307
304
301
303
307
304
302
306
309
305
303
307
308
305
305
309
310
306
310
309
306
307
312
311
306
307
311
311
307
308
311
309
306
308
312
310
306
309
314
312
308
312
314
312
309
312
315
312
309
314
315
311
311
316
318
315
314
318
318
314
314
319
320
315
316
320
320
316
317
320
320
317
318
322
320
317
320
324
321
319
321
322
320
324
327
323
323
328
329
327
329
334
335
331
332
340
343
335
330
327
324
319
320
323
322
319
322
328
332
320
314
318
321
331
359
396
412
390
361
336
295
269
295
325
328
326
330
331
327
327
332
335
330
329
333
335
332
333
337
338
335
336
342
343
345
339
338
340
345
350
350
348
353
359
359
358
363
368
367
368
374
377
374
372
376
377
372
367
365
359
347
338
334
330
324
326
316
309
306
308
312
310
306
308
313
313
309
309
315
314
311
312
316
314
312
316
320
314
312
319
324
310
304
311
316
313
311
316
316
311
316
317
313
313
317
317
314
316
323
321
306
305
314
316
314
315
319
317
313
316
322
319
315
317
324
323
319
327
332
319
314
323
332
332
331
333
331
323
317
319
319
316
315
320
320
317
317
327
320
309
312
319
325
340
370
394
384
355
336
314
277
271
303
328
324
328
338
336
323
325
332
330
330
334
336
333
332
337
340
337
336
341
344
341
341
347
352
350
341
346
351
351
355
361
364
363
366
371
370
370
374
377
374
370
377
381
362
350
348
345
336
326
323
322
316
312
315
314
309
308
313
321
308
300
307
312
311
314
315
312
312
317
317
313
315
319
317
321
315
312
311
312
316
317
315
313
315
317
314
312
316
319
313
312
319
325
309
304
315
321
319
317
321
325
323
321
326
327
325
328
332
331
324
318
311
311
310
314
318
317
312
314
319
318
315
318
321
322
338
366
379
351
337
316
280
269
298
324
324
322
328
329
326
326
330
335
329
322
326
330
328
329
334
334
331
334
339
336
334
336
340
341
338
342
349
354
341
343
351
352
352
358
364
364
362
365
366
364
363
366
364
355
348
346
345
325
312
314
314
310
309
311
309
303
304
308
303
306
310
309
312
305
303
305
305
308
312
310
308
310
314
311
309
313
314
311
310
313
316
316
315
306
307
308
311
316
315
312
311
315
317
315
316
322
322
318
318
325
326
325
332
332
316
307
310
315
313
309
312
315
311
310
314
316
313
312
316
317
319
364
382
373
347
321
297
267
273
306
320
316
317
323
323
319
319
323
324
322
323
327
323
321
324
328
325
324
328
333
336
323
322
330
331
331
337
339
337
337
343
346
345
347
353
355
352
354
358
358
354
352
355
352
348
333
324
318
311
310
311
305
300
302
304
298
299
301
299
297
301
303
300
298
302
304
302
300
303
305
302
301
306
311
306
295
300
303
301
302
306
306
303
304
307
306
304
304
308
306
303
305
309
306
303
304
308
306
304
307
313
316
305
305
309
311
313
315
317
315
316
324
327
321
315
314
311
308
306
311
308
308
312
311
309
310
314
311
309
319
339
360
381
379
362
338
305
272
280
304
314
317
320
316
315
320
323
320
319
322
323
321
322
325
327
325
325
329
330
327
328
333
334
331
333
338
339
336
340
346
347
345
350
356
356
355
360
364
362
360
364
367
362
355
350
339
330
328
324
316
312
314
313
308
307
311
310
307
306
310
310
307
308
313
311
307
309
313
312
309
310
314
311
309
312
316
313
309
312
315
313
311
314
317
314
312
315
317
313
312
317
317
312
312
317
318
313
312
316
318
313
314
319
317
312
314
317
313
315
319
317
314
316
319
316
313
316
319
316
314
318
320
316
315
319
321
316
316
320
321
316
316
321
321
317
317
321
321
317
319
322
321
318
318
322
320
317
320
323
322
318
320
325
323
320
323
325
322
321
324
326
322
320
325
327
324
322
325
326
323
322
326
322
322
327
327
322
322
327
327
323
324
327
327
328
330
333
332
334
339
341
339
338
341
344
337
331
330
328
323
320
323
324
321
320
324
325
321
319
322
322
326
341
373
409
413
396
373
339
295
293
316
325
324
324
326
324
322
324
327
325
322
325
330
327
328
331
328
327
331
334
331
330
335
338
335
335
340
343
341
342
348
350
349
353
358
360
359
362
369
371
368
369
373
372
368
368
366
356
347
342
339
330
322
320
319
314
311
313
314
310
307
310
312
308
306
311
312
309
308
313
313
308
308
314
314
311
312
316
312
313
317
316
312
314
319
317
313
315
318
316
313
316
318
315
313
317
318
315
314
318
319
317
315
318
320
315
316
321
321
317
317
321
320
318
319
322
322
317
319
323
321
317
319
323
321
317
320
325
322
319
321
324
321
318
322
325
322
318
322
327
325
324
327
323
323
327
328
323
324
327
328
326
324
329
330
324
325
329
329
325
326
330
329
325
328
332
336
336
340
345
345
342
345
350
348
343
343
342
331
322
324
327
323
320
324
327
323
321
325
326
320
319
329
343
366
406
423
405
371
338
301
290
308
324
331
330
325
330
327
324
328
332
329
326
330
333
331
329
332
336
334
334
338
340
337
337
342
344
341
342
348
350
348
350
356
359
358
361
369
370
368
371
375
375
372
374
375
369
359
354
348
338
328
325
321
313
309
310
312
306
304
309
310
306
305
307
307
304
304
307
306
305
309
309
304
305
309
308
305
308
312
311
307
308
312
311
307
310
314
310
309
311
314
311
308
311
315
311
308
312
316
312
310
314
315
311
309
314
316
311
311
315
316
312
312
316
315
311
312
317
316
314
315
320
317
314
316
320
316
314
316
320
318
315
320
318
316
319
320
318
317
321
323
319
316
320
323
320
321
323
322
320
320
324
324
320
320
324
323
320
322
325
323
320
323
329
331
334
339
343
340
337
341
346
342
338
338
336
325
319
322
323
320
319
323
324
320
320
323
322
318
323
340
367
400
418
403
370
297
293
312
315
320
327
327
323
327
331
329
325
330
333
330
328
331
335
333
331
336
338
335
335
339
343
341
341
346
348
344
346
352
354
352
356
364
373
365
360
366
370
369
374
379
378
374
375
374
366
355
349
345
334
325
322
321
317
313
315
322
312
302
306
308
308
311
311
307
307
313
314
309
308
312
314
311
312
316
316
318
311
307
309
310
313
317
316
312
315
318
315
313
316
318
314
312
315
317
313
314
318
322
322
312
310
314
315
316
319
319
315
316
319
320
315
316
320
319
314
316
320
322
324
315
313
314
314
322
320
317
319
322
320
317
321
324
321
321
328
332
334
341
332
328
331
334
340
338
330
324
322
320
316
317
321
319
316
318
322
328
318
310
320
339
365
392
392
368
340
318
284
272
297
322
327
324
323
327
330
332
326
321
324
325
327
332
333
329
329
335
336
334
337
338
335
338
344
347
346
350
344
343
346
353
360
360
359
365
373
372
368
371
375
372
372
380
369
356
350
349
342
332
326
326
323
314
310
312
312
310
307
316
317
301
300
308
312
308
306
312
313
309
311
315
314
308
312
324
313
302
307
313
312
309
313
313
309
312
313
308
307
312
316
312
315
319
308
303
306
313
315
311
311
315
316
313
313
316
316
313
314
319
319
320
311
311
312
312
316
318
315
313
317
322
320
317
321
327
323
322
333
327
318
322
328
327
320
314
316
315
311
313
318
319
314
315
322
322
309
318
324
338
364
379
364
341
326
307
274
277
310
328
326
330
324
320
320
322
328
331
326
326
331
331
325
326
331
333
330
328
332
335
331
334
344
339
329
332
341
344
343
345
351
353
352
356
362
362
360
363
368
366
363
366
367
358
355
347
333
322
318
317
315
305
308
309
304
302
305
305
302
301
305
307
304
312
307
299
298
304
309
306
303
306
311
309
306
309
312
309
306
310
313
309
306
311
319
309
299
305
310
307
305
310
311
308
307
311
312
309
310
315
314
310
313
319
318
315
319
324
325
325
329
321
306
301
306
308
306
309
311
308
307
309
311
309
308
311
319
334
356
379
372
347
324
299
266
265
294
314
318
315
306
309
313
313
314
318
317
314
317
321
319
316
319
324
322
319
323
327
325
323
326
331
329
329
335
338
335
336
342
347
346
347
353
357
356
362
356
354
353
356
350
340
332
329
321
313
310
310
306
301
303
305
302
298
300
303
301
298
301
305
303
301
304
307
302
301
306
309
305
304
308
310
305
305
309
310
308
307
312
312
307
308
313
311
306
307
311
311
307
310
312
310
308
311
314
311
309
312
315
312
311
314
316
310
315
318
313
311
317
319
314
313
318
319
314
315
319
320
316
316
320
319
316
317
321
320
318
320
323
321
318
320
324
321
318
321
327
325
323
325
328
328
325
332
335
333
334
339
337
329
324
324
323
318
319
323
324
320
319
323
322
319
321
326
332
341
367
396
373
354
330
294
293
315
328
328
324
327
330
327
326
328
330
327
327
332
335
331
329
334
336
332
331
335
338
335
336
340
341
338
340
346
347
345
347
354
354
353
358
364
364
363
365
369
368
366
369
371
366
360
358
354
342
334
330
327
319
314
316
315
309
312
313
309
308
311
310
306
307
311
310
306
307
311
311
309
309
313
312
308
310
314
311
309
313
317
314
312
314
316
313
311
314
317
314
312
315
317
314
314
317
318
314
314
318
318
313
314
318
317
312
313
320
318
315
316
320
317
314
315
319
318
315
317
320
316
321
323
320
317
319
322
319
319
322
322
319
318
323
324
320
319
323
322
320
318
323
323
320
321
326
325
321
322
326
324
321
322
325
324
320
323
326
323
321
325
328
326
323
326
328
328
328
330
332
332
332
335
336
335
338
343
341
332
326
326
325
319
321
324
320
321
325
323
320
322
327
332
342
370
405
404
380
358
330
290
292
317
329
329
325
327
330
326
324
329
332
328
327
331
333
329
329
333
334
332
332
337
337
335
335
340
341
338
341
346
345
344
348
354
353
353
358
364
363
362
368
371
370
368
372
374
369
362
356
344
336
333
329
320
315
316
315
309
308
311
310
307
307
309
308
306
308
312
310
306
308
311
308
306
308
312
310
307
311
314
311
309
312
315
310
308
313
316
312
311
315
316
312
311
315
315
312
312
316
315
311
312
317
316
312
312
316
316
311
313
318
311
314
316
314
312
315
319
314
313
317
319
316
314
316
320
315
313
317
320
317
317
320
320
315
315
320
318
314
316
321
320
315
317
322
321
317
318
322
321
318
320
324
322
318
319
323
321
318
321
326
324
322
326
331
332
331
333
336
336
336
339
334
325
321
321
317
317
321
321
317
319
322
322
316
319
330
345
370
404
408
380
348
320
287
288
310
324
330
327
323
325
328
324
323
327
330
326
325
329
331
329
330
334
334
330
331
337
339
335
336
341
342
339
342
347
348
346
350
355
355
355
360
366
367
366
369
373
372
372
371
365
357
352
345
333
327
324
320
312
309
311
309
303
302
306
306
301
302
307
307
304
304
309
307
304
304
309
308
304
305
310
309
304
307
311
308
306
309
312
309
307
309
311
308
307
310
311
309
309
312
314
309
308
312
313
309
310
313
313
309
311
315
311
313
316
315
311
312
316
315
311
314
319
317
314
316
319
317
314
318
321
320
317
320
322
319
319
322
324
320
320
324
326
321
320
324
325
322
322
326
327
325
328
332
330
327
332
336
333
331
336
344
342
335
330
328
323
320
324
328
322
318
324
328
322
318
327
327
338
366
400
413
390
363
335
292
276
306
328
331
337
331
325
324
327
331
330
328
331
335
334
330
333
338
337
335
338
340
339
338
343
346
341
341
347
352
350
350
357
366
364
354
359
365
367
369
374
375
375
378
379
376
371
369
368
360
347
339
336
329
319
320
316
311
312
314
312
308
312
317
318
305
307
313
311
310
313
315
312
312
316
319
315
313
315
317
315
314
317
318
314
315
318
317
314
315
318
318
313
314
318
316
313
315
320
317
314
316
319
316
314
317
320
317
316
319
320
318
319
319
318
316
316
320
316
316
319
320
317
316
319
320
316
318
325
324
320
322
329
327
324
326
329
330
332
331
329
321
316
317
318
313
312
315
318
314
313
316
317
314
315
320
332
350
378
397
379
347
320
289
263
277
310
322
321
319
321
326
322
318
321
327
325
321
325
330
327
325
331
329
328
333
336
332
330
337
341
337
337
343
347
345
346
352
355
354
356
363
365
363
365
370
370
366
367
368
362
350
344
341
331
320
315
315
309
302
303
305
301
298
299
301
298
298
304
306
301
300
305
307
303
302
306
306
301
301
308
308
304
304
309
308
305
308
307
304
305
309
307
303
305
310
307
303
305
309
308
306
308
311
307
305
309
311
307
306
310
311
309
309
314
314
309
308
313
312
308
310
315
315
311
312
316
316
312
313
317
316
315
317
320
319
319
321
325
323
323
329
335
330
323
318
317
313
309
312
312
312
315
317
313
313
317
317
319
336
366
398
396
371
349
317
273
273
306
320
319
320
325
323
319
322
327
324
322
325
328
324
323
327
330
327
326
331
333
331
331
335
336
333
335
341
344
341
342
347
350
347
350
359
361
360
363
368
368
364
367
371
369
364
356
345
334
330
327
319
312
313
314
309
304
307
309
305
303
307
308
305
304
309
309
306
308
311
310
306
307
313
313
309
310
315
314
312
312
314
313
311
312
315
314
310
312
317
314
311
315
318
315
314
316
317
312
312
317
318
315
314
318
319
314
314
316
318
313
319
320
316
316
321
320
316
316
320
318
316
319
322
320
318
319
321
319
319
322
326
326
324
326
329
327
327
331
334
332
335
340
337
326
321
323
323
318
318
322
323
319
319
323
322
319
320
326
334
349
379
414
406
373
345
314
277
287
316
328
327
325
328
327
325
328
331
327
326
330
333
330
329
335
336
334
333
337
339
336
337
342
342
340
342
349
348
346
350
356
356
355
359
365
366
365
368
373
372
370
371
372
366
359
356
350
337
328
327
323
315
310
312
311
307
305
307
308
304
303
309
308
305
307
311
310
306
311
310
307
309
313
311
307
310
314
312
309
312
315
311
309
313
315
311
311
313
315
311
311
313
314
312
311
315
316
313
312
316
316
313
313
315
314
312
315
318
317
313
314
319
317
313
316
318
315
313
316
321
317
312
317
321
318
315
318
319
317
315
319
321
315
319
320
318
319
322
322
318
319
323
324
323
324
327
328
326
326
332
331
331
337
340
332
322
320
322
317
315
318
322
319
317
320
322
319
318
321
326
334
358
397
415
390
359
333
293
273
297
322
327
324
323
328
328
324
325
329
329
327
330
333
332
329
331
333
331
333
339
337
336
340
343
340
340
346
349
346
347
353
356
355
357
363
365
363
367
374
373
368
368
372
372
364
358
356
354
340
324
322
318
312
312
312
307
304
307
310
307
305
307
309
305
304
310
314
309
307
314
316
311
310
317
324
308
302
309
314
311
314
313
310
313
317
315
311
313
317
313
310
312
317
315
313
315
317
313
311
322
320
307
306
312
317
313
310
315
318
315
313
318
317
313
314
319
320
316
316
320
320
315
316
321
320
316
318
325
328
314
311
320
323
322
323
327
328
326
328
332
332
334
336
333
321
321
321
317
317
320
321
319
319
321
322
319
319
325
334
351
382
405
393
359
329
302
273
280
313
328
328
324
326
331
329
327
328
332
332
331
334
337
332
331
334
337
334
334
340
343
339
338
342
345
344
345
352
353
348
350
359
361
360
363
369
370
368
371
373
370
372
373
368
357
353
347
335
326
324
322
315
310
310
311
307
304
308
309
304
303
306
308
305
304
309
310
305
305
310
310
306
307
311
310
306
306
311
310
306
309
312
311
307
309
312
308
306
308
309
309
307
310
312
309
306
310
311
307
306
311
313
308
311
312
308
308
313
313
310
310
313
312
310
311
313
312
310
310
313
313
311
313
318
316
311
314
320
318
315
319
324
321
320
324
328
330
331
331
327
318
313
316
316
312
310
315
316
312
311
316
316
312
312
320
333
353
385
405
382
349
323
288
269
291
315
324
319
320
323
321
319
323
327
324
323
326
328
325
324
328
331
328
329
333
336
333
332
336
337
336
338
345
347
343
345
352
355
355
359
366
364
361
366
370
368
366
367
369
363
353
348
343
330
320
318
316
309
306
309
309
303
299
304
307
303
303
307
307
303
304
308
303
305
310
309
306
308
312
312
308
310
314
311
308
310
313
310
307
310
313
311
308
311
313
308
305
310
312
310
310
315
315
310
310
314
314
308
310
316
316
312
312
315
314
311
313
317
315
310
312
317
317
313
315
319
316
316
319
321
317
316
319
320
315
318
321
317
316
319
320
315
316
320
322
316
315
322
325
324
323
325
325
326
326
332
334
331
335
341
335
326
322
323
319
314
317
322
319
315
318
323
320
318
318
322
329
348
382
414
405
374
347
312
273
286
315
325
323
322
325
326
320
321
327
328
325
324
329
325
328
333
332
329
331
333
333
333
337
341
338
338
342
346
343
342
347
353
354
355
361
364
363
363
369
371
369
369
374
371
364
359
358
349
337
331
327
320
312
309
312
307
302
304
307
304
301
305
308
305
302
306
309
306
304
308
310
308
307
311
313
310
308
312
308
309
314
314
311
311
315
314
311
311
315
314
311
312
315
313
310
313
316
313
312
314
316
313
309
313
318
315
312
315
316
314
314
318
319
314
314
318
320
316
317
322
321
317
318
322
326
324
314
315
318
316
320
322
320
318
321
325
322
319
323
327
324
323
326
322
321
326
329
326
327
332
332
328
331
337
340
343
338
335
337
338
337
337
330
321
321
326
325
322
326
330
327
323
324
328
323
325
340
366
396
422
400
370
341
305
280
302
324
329
332
333
330
329
333
335
331
331
336
336
332
333
339
339
335
337
344
343
334
340
344
342
344
350
350
348
351
355
356
357
362
367
366
367
372
376
374
373
377
381
379
377
368
361
352
347
345
337
326
321
322
317
311
311
314
312
308
308
310
309
306
307
315
318
305
305
312
311
307
308
314
313
311
314
316
311
309
313
318
313
310
315
311
311
317
318
312
313
321
320
305
305
314
316
310
311
315
317
313
312
316
315
311
313
317
315
312
316
319
315
312
316
319
316
314
318
320
316
314
318
321
316
314
318
320
316
316
321
323
321
322
325
325
322
324
330
331
328
333
334
328
318
317
320
316
313
318
317
313
315
318
315
314
319
320
325
345
378
400
384
356
329
299
265
271
307
322
321
321
326
325
322
324
328
328
321
325
332
330
326
329
334
332
329
333
338
336
332
335
339
337
338
343
347
346
346
350
355
354
356
363
368
367
367
372
373
368
369
375
365
357
352
344
332
325
324
318
311
308
309
306
301
302
305
303
301
302
305
303
301
303
308
305
303
304
305
303
302
308
311
308
305
308
310
306
305
309
309
307
307
310
309
305
306
310
310
308
308
312
310
307
308
313
312
308
310
313
311
310
312
315
312
309
313
312
312
315
316
312
312
316
317
313
313
317
318
314
312
317
316
314
316
320
319
314
316
321
320
314
317
321
320
317
320
324
322
322
326
331
329
328
334
339
333
327
324
321
316
316
319
320
316
314
320
321
317
317
321
320
319
332
360
391
409
395
369
338
275
298
316
320
324
328
325
321
324
328
325
322
327
331
328
325
330
333
329
328
331
333
331
331
336
338
335
336
342
343
342
344
350
351
351
353
360
361
361
364
369
370
368
372
375
371
367
366
362
353
343
336
330
321
315
314
315
309
304
306
307
304
303
307
304
303
307
308
304
304
309
308
307
308
311
308
307
309
313
313
309
310
314
311
308
310
315
312
310
312
314
311
311
313
315
311
309
314
316
311
309
314
315
312
311
315
315
314
312
315
315
311
311
315
315
313
315
319
316
311
313
316
315
312
314
317
316
313
319
315
314
319
320
316
314
317
319
316
314
317
318
316
315
320
321
318
318
321
321
318
318
322
320
316
319
323
321
318
320
324
323
322
324
328
326
326
330
333
331
329
335
343
338
330
326
324
319
317
321
324
320
318
321
321
318
318
322
321
322
335
362
397
397
371
340
297
277
304
322
324
326
329
325
322
325
331
329
324
329
333
329
327
330
334
332
329
334
336
333
333
339
341
338
339
344
345
342
346
352
355
353
356
362
364
364
368
373
373
370
373
379
377
373
371
371
360
348
343
337
328
321
320
319
312
308
311
309
307
310
311
306
305
310
312
308
308
312
313
309
308
313
315
312
313
317
315
311
313
317
316
312
313
317
315
314
319
326
312
304
311
317
314
312
316
318
314
313
318
320
315
314
319
319
314
314
319
318
315
316
320
318
314
317
327
323
309
310
318
317
315
321
319
316
318
322
319
318
321
323
321
318
321
325
322
320
326
333
319
311
318
323
320
320
325
325
319
320
326
328
326
330
337
340
338
337
341
341
339
339
341
336
329
322
317
315
317
321
323
321
318
321
324
318
321
339
368
394
403
386
360
331
298
269
287
323
327
326
322
324
330
329
326
328
332
328
327
331
335
333
329
334
345
333
323
331
338
338
338
344
348
344
342
350
353
352
351
358
362
361
365
378
371
362
365
373
376
371
368
367
362
351
344
341
333
322
317
317
315
315
313
306
303
303
307
310
307
304
308
308
306
309
311
311
317
311
306
305
310
315
314
312
311
314
314
310
311
317
317
312
312
318
321
308
305
312
313
309
312
317
315
313
314
317
314
311
315
318
315
319
313
310
311
313
316
318
316
314
319
320
317
317
322
322
317
315
322
326
311
309
320
323
321
332
333
329
330
334
335
333
334
333
326
322
319
313
310
311
316
319
317
315
319
318
315
324
351
379
387
370
354
337
306
266
278
312
322
321
326
326
324
325
329
329
325
326
330
329
326
331
341
337
323
328
335
334
331
335
338
337
336
343
348
346
347
354
353
348
358
364
363
363
367
370
368
370
373
371
366
363
358
347
339
338
330
314
308
310
312
310
306
307
310
307
303
306
310
307
305
314
312
298
298
307
311
307
307
313
313
310
309
314
314
310
312
317
315
312
319
314
305
304
309
316
313
309
311
315
312
309
311
314
310
313
316
312
310
315
323
314
304
312
320
316
317
322
324
319
319
326
329
326
324
324
319
312
312
313
311
310
313
324
319
303
305
313
314
310
312
320
332
353
381
386
362
336
313
283
266
289
315
321
318
319
322
322
317
318
323
324
324
325
320
320
321
328
328
324
325
331
329
327
331
334
334
331
335
341
341
341
344
350
350
350
356
360
358
361
367
361
355
356
359
357
346
337
334
327
317
311
311
309
303
302
304
302
297
297
301
300
297
299
303
299
296
301
311
298
291
298
303
302
300
304
307
304
300
303
306
304
306
307
302
302
306
306
302
302
306
307
304
304
308
307
302
303
313
315
299
298
307
308
304
307
311
309
306
307
311
311
308
310
312
309
306
310
313
311
309
312
314
310
307
312
313
310
309
312
313
312
313
320
321
317
318
324
321
319
322
327
329
327
327
320
312
314
318
316
313
316
319
316
313
315
317
315
314
321
332
344
368
397
392
366
342
316
283
289
311
324
326
321
321
325
325
321
323
328
327
323
325
330
329
325
329
332
330
328
332
336
334
332
335
340
338
338
342
345
344
344
351
355
354
356
363
366
364
371
374
369
367
369
366
357
352
349
340
329
325
324
318
311
311
312
309
306
308
311
308
306
308
311
308
305
308
310
307
308
311
312
308
309
313
313
310
310
314
315
310
309
314
315
314
317
325
314
305
310
316
315
312
314
318
317
314
317
320
318
315
318
323
317
320
322
318
318
320
321
318
318
322
323
317
316
321
322
317
318
323
324
321
321
325
324
320
322
326
324
319
321
325
323
320
324
327
324
320
323
328
324
321
324
326
324
322
326
328
325
323
326
327
323
323
328
327
321
322
326
327
325
325
329
329
324
323
327
323
325
329
328
325
327
330
327
324
325
330
327
323
328
333
334
333
338
345
341
337
343
347
342
338
340
335
325
322
325
326
322
322
327
326
322
322
325
322
326
339
366
400
410
396
374
341
299
290
312
322
323
325
326
324
323
325
328
325
323
328
330
327
328
330
327
327
333
336
333
333
337
337
335
337
342
343
340
343
349
349
346
351
358
360
358
362
368
367
367
371
376
372
369
370
369
359
349
344
339
329
321
320
319
313
309
311
312
307
306
310
310
305
305
308
308
305
306
310
308
304
307
312
311
307
308
313
305
308
312
311
308
312
315
310
309
313
316
312
310
313
315
311
311
314
316
313
312
315
316
312
312
316
316
313
313
317
316
312
313
317
317
313
315
319
317
314
317
320
317
315
319
321
319
316
319
320
318
317
321
322
318
317
321
322
318
318
322
323
320
320
323
319
319
325
325
321
321
325
323
319
320
323
323
320
322
326
324
321
322
325
323
321
324
327
324
321
325
326
322
319
325
327
322
322
328
331
331
334
340
342
339
339
345
345
340
339
341
336
325
320
322
321
318
320
323
320
319
321
323
319
316
326
343
366
414
396
364
330
294
287
307
320
327
327
321
322
327
327
322
322
328
327
324
325
328
329
329
328
331
331
330
331
335
336
334
337
341
339
338
342
347
345
347
353
357
356
356
363
367
368
367
373
375
371
371
373
371
363
356
352
344
332
325
323
318
310
308
310
301
304
307
305
301
303
307
305
301
304
307
304
300
306
309
306
303
305
311
308
305
309
310
306
306
312
312
308
308
312
312
308
308
312
312
309
310
314
314
309
311
314
312
310
312
315
312
309
313
318
314
310
314
317
314
313
315
317
314
313
318
319
314
313
319
316
315
320
321
316
317
322
321
318
318
321
321
317
317
322
320
317
319
323
322
319
321
323
320
319
322
325
321
319
322
324
321
318
323
329
329
332
338
339
332
333
341
343
338
334
332
322
316
317
321
321
317
319
322
318
315
318
319
319
325
346
379
407
372
346
310
273
286
317
324
323
325
326
322
321
326
328
325
325
329
329
324
326
335
336
322
322
330
332
329
332
338
339
336
340
345
344
343
348
353
353
352
356
361
362
362
369
374
371
371
375
377
372
368
368
363
351
342
338
332
321
317
318
314
306
306
308
302
302
308
313
308
298
302
304
303
306
308
307
305
308
310
307
305
309
312
308
306
310
313
310
308
310
313
309
308
312
314
308
308
313
312
307
308
312
312
309
308
312
311
308
309
314
313
311
312
315
313
309
311
316
313
308
312
317
313
310
315
317
313
311
316
313
311
316
318
313
311
316
317
313
314
318
318
313
313
317
317
313
315
319
318
315
317
320
322
324
330
338
334
328
331
338
337
332
331
326
315
311
314
317
313
312
315
317
313
312
316
317
321
338
370
401
395
366
340
310
270
268
303
320
318
320
323
321
320
326
325
322
325
327
327
325
328
330
328
325
329
334
332
331
336
338
336
336
342
344
342
342
349
352
351
353
361
363
362
366
373
372
369
372
376
374
367
364
363
353
341
334
330
322
314
313
313
307
302
305
306
303
301
303
306
303
301
303
305
302
302
308
303
303
308
309
306
306
309
309
306
307
310
309
306
307
311
309
307
310
312
309
305
308
313
310
306
309
312
310
308
310
314
310
308
312
314
310
310
315
315
310
309
313
316
312
312
316
315
311
311
318
318
314
314
318
318
314
315
318
318
315
317
320
318
316
321
319
317
320
322
318
317
321
323
320
317
321
323
319
319
323
324
320
320
324
324
322
326
335
337
337
338
338
338
338
342
346
341
331
323
322
321
318
320
324
321
320
322
324
322
320
333
355
381
408
407
381
348
315
283
294
316
324
328
328
324
325
330
329
327
333
334
329
330
334
334
331
333
338
336
333
336
341
339
337
342
346
343
342
347
352
350
350
355
360
359
359
367
371
369
371
375
374
371
371
375
372
363
355
349
340
329
325
323
318
311
310
312
308
304
306
308
306
304
306
308
305
304
308
310
306
305
309
307
306
310
312
307
306
312
312
308
308
312
311
307
310
314
312
308
309
314
312
309
311
313
312
310
311
315
313
310
312
314
311
308
313
316
312
310
315
317
314
313
317
317
313
312
317
317
313
314
317
317
314
314
318
318
314
316
320
319
315
316
320
319
315
320
319
317
320
322
320
317
321
323
320
317
322
324
321
319
324
325
320
319
322
323
319
319
325
328
327
330
338
340
333
333
341
344
339
337
336
327
318
318
321
318
316
318
322
319
316
319
323
326
336
366
403
411
385
359
331
288
277
307
325
324
324
327
327
322
327
328
324
324
329
330
327
328
333
332
328
331
337
335
332
335
340
338
337
342
346
345
343
348
352
351
352
357
364
362
363
369
372
370
370
374
374
369
367
365
360
348
340
336
329
320
316
318
313
307
307
310
308
304
306
308
307
304
307
311
308
307
310
310
307
311
312
309
308
312
314
310
308
312
314
310
310
314
316
311
311
314
313
308
310
314
312
310
311
315
313
311
315
324
312
303
308
314
313
309
313
316
314
312
315
317
313
312
318
321
316
315
319
322
317
315
319
320
316
316
321
321
320
327
322
314
312
322
321
318
319
323
321
319
321
324
321
319
323
326
322
322
326
332
333
339
347
335
328
332
340
343
336
331
327
322
317
318
322
322
318
318
324
324
321
323
335
341
361
393
403
379
347
321
287
273
297
321
328
325
324
328
330
326
325
330
333
330
329
333
333
335
343
333
327
330
338
339
337
338
343
346
342
344
350
350
348
353
359
359
359
362
369
368
367
372
377
375
373
375
377
370
362
358
352
340
330
327
323
315
311
312
315
315
303
301
303
301
304
309
309
304
304
309
309
306
308
311
309
307
309
312
309
305
308
310
307
309
311
307
306
310
312
308
306
310
318
307
299
305
309
306
305
309
309
306
306
310
310
306
306
311
310
306
308
312
311
308
309
312
311
309
311
314
311
308
312
315
312
309
313
315
312
311
314
315
312
312
315
316
312
312
316
317
313
315
322
327
324
331
331
328
330
335
334
327
321
317
313
310
311
315
314
310
312
313
311
309
314
326
345
371
396
385
352
324
297
265
271
302
318
318
315
316
320
321
318
319
323
323
319
320
325
325
322
324
328
326
324
326
331
331
329
333
337
335
334
338
343
342
342
347
351
352
359
364
362
363
368
371
367
367
370
367
358
352
348
339
327
321
319
314
306
305
307
304
300
302
305
303
300
302
306
303
300
304
307
304
301
305
308
305
304
308
310
306
305
308
311
308
306
310
311
306
306
310
311
307
307
311
311
307
308
312
311
306
309
313
309
311
315
312
309
311
316
314
311
314
314
311
309
314
316
312
312
315
317
312
312
316
317
314
313
316
318
315
316
319
318
314
314
319
317
313
315
320
319
314
316
322
323
320
322
324
325
324
327
331
329
329
335
335
327
319
318
318
315
315
319
321
316
320
321
316
316
321
329
342
371
408
409
380
351
323
283
280
308
325
326
322
323
326
324
322
325
329
326
323
327
330
328
326
330
333
330
329
335
336
332
332
338
341
337
337
343
344
343
345
352
354
353
357
363
365
363
366
372
371
370
373
374
370
363
360
355
333
328
324
317
312
312
311
306
305
308
308
304
303
306
308
303
303
309
309
305
306
310
311
307
307
313
313
309
309
313
312
308
310
315
312
310
313
316
313
310
313
317
313
310
314
317
314
312
315
318
314
312
317
317
314
314
317
318
314
314
318
317
314
315
318
316
316
320
317
314
317
320
318
315
318
322
320
316
320
323
319
317
321
323
319
317
320
322
320
321
325
326
321
323
330
331
327
329
336
339
334
329
328
322
316
315
319
319
316
318
321
318
315
317
321
317
319
334
358
387
410
400
373
340
300
275
295
316
327
328
324
323
327
329
325
325
330
332
329
328
333
334
330
334
338
336
333
335
339
340
341
352
346
337
339
346
353
353
353
358
364
364
364
370
376
373
372
377
380
377
374
373
369
359
352
348
341
334
330
318
312
309
310
314
312
307
309
314
311
307
309
313
308
310
314
312
309
312
317
320
310
306
310
311
310
313
315
311
310
314
316
311
311
316
316
313
312
317
315
309
310
316
322
313
305
310
313
311
312
316
315
312
314
319
316
312
315
318
316
316
317
318
317
315
321
326
312
308
315
319
316
316
322
324
322
321
329
325
326
333
330
327
333
336
332
326
314
314
312
312
318
322
319
316
320
323
318
317
320
324
331
352
385
405
390
352
327
300
269
278
314
328
323
323
329
329
326
327
332
332
328
330
336
340
334
326
331
332
329
334
340
338
336
339
344
342
341
345
349
349
354
358
360
366
362
363
364
368
374
376
373
374
378
376
368
361
359
350
337
331
329
323
314
313
320
316
299
300
307
308
304
305
309
306
304
307
311
309
306
311
313
311
308
314
321
307
301
308
312
309
309
313
314
309
310
314
313
310
310
314
313
309
312
315
315
307
310
310
309
312
315
313
310
313
319
315
312
318
322
319
316
321
324
320
321
329
337
329
321
324
323
314
313
316
315
312
312
317
316
312
313
317
315
312
313
317
327
348
380
402
373
339
322
297
266
274
308
322
319
318
322
324
321
320
325
326
323
323
330
332
327
323
327
326
327
333
333
329
332
338
339
336
340
345
345
343
347
354
353
352
356
363
363
362
367
370
367
365
368
373
358
341
339
335
325
318
316
312
304
303
305
305
299
299
302
301
296
299
305
301
298
300
303
303
301
303
308
305
302
304
308
305
306
309
306
304
309
317
307
296
302
308
305
303
307
308
304
304
308
308
304
304
308
309
305
305
310
309
305
306
311
310
305
307
312
309
305
307
311
309
308
312
317
312
310
316
320
316
315
320
326
324
322
322
317
308
306
310
311
308
307
311
311
307
309
314
309
310
323
337
359
388
389
362
334
309
275
270
296
315
320
316
314
318
322
320
317
323
324
320
319
324
326
322
323
328
329
325
326
331
332
329
330
336
337
336
338
343
343
341
344
350
353
353
357
364
363
361
364
370
368
365
366
365
357
347
343
336
325
317
314
307
305
307
307
303
301
306
306
302
303
306
306
302
303
308
307
303
304
308
306
304
307
310
306
305
309
312
309
308
311
312
309
307
313
315
312
310
314
315
311
311
314
315
311
310
314
315
311
312
317
316
312
314
318
316
312
314
318
317
312
314
318
316
316
319
316
313
318
321
317
317
321
322
318
316
320
322
318
317
321
322
318
318
323
323
319
319
322
322
318
320
324
323
319
320
324
323
320
321
326
324
320
322
326
324
321
324
327
325
324
329
332
327
326
332
334
331
331
336
340
337
334
334
328
319
317
323
319
320
324
321
318
319
323
321
316
323
339
360
392
412
401
373
340
305
286
303
317
326
329
324
322
326
329
326
324
328
330
326
326
330
332
328
328
333
335
331
332
337
337
334
337
342
341
338
343
348
347
347
352
357
358
357
363
368
368
369
373
376
374
372
375
367
358
355
349
337
330
328
324
315
313
314
313
308
308
311
310
307
308
312
310
307
307
312
310
307
309
313
310
307
310
314
311
308
312
315
312
310
314
316
314
312
317
319
314
313
317
318
314
314
318
319
314
314
319
318
315
315
320
318
315
317
320
319
317
321
319
314
317
321
319
316
319
321
318
317
320
322
318
316
321
324
319
318
321
322
319
319
322
322
318
319
324
323
319
320
324
324
320
322
326
324
321
323
326
323
319
322
327
323
320
323
327
324
321
324
330
330
329
331
334
336
336
338
342
341
341
343
330
322
325
324
320
321
326
325
320
321
325
323
321
331
349
373
404
411
392
360
325
290
291
312
323
328
329
326
323
327
330
327
326
329
331
327
326
331
333
330
330
335
335
332
334
339
340
337
338
343
343
341
344
349
349
347
352
359
359
359
365
370
369
369
377
375
373
374
373
364
355
350
343
332
324
323
320
312
309
311
310
305
305
309
308
305
305
309
308
304
306
310
308
304
305
309
308
304
307
310
308
305
308
311
308
307
310
313
308
309
312
314
309
308
313
313
309
310
314
314
309
310
314
314
310
310
314
313
311
315
314
311
313
316
315
313
318
322
320
316
321
325
322
322
326
331
332
329
328
324
314
311
314
316
312
312
316
316
312
311
314
315
310
312
326
343
367
397
400
372
341
309
274
282
304
318
323
320
317
320
322
320
318
322
326
322
321
325
328
325
323
328
327
326
332
333
329
331
337
338
335
337
344
344
343
347
354
355
353
357
364
365
364
367
372
369
367
367
366
356
345
341
336
325
316
314
314
307
304
307
308
303
301
306
307
302
301
305
305
302
303
308
307
304
305
308
308
305
306
310
309
305
308
311
308
304
311
307
304
309
312
309
306
310
313
308
307
310
311
308
307
312
312
308
308
313
314
313
313
317
319
317
318
323
323
322
327
333
328
317
313
314
310
308
310
314
312
310
313
316
312
310
312
314
316
328
355
390
401
380
354
325
278
264
295
316
316
317
321
321
315
321
323
318
320
325
323
320
322
328
325
323
327
331
329
327
331
336
334
332
337
342
340
340
346
351
350
350
356
361
360
361
368
369
366
366
370
368
361
355
352
343
331
325
323
317
309
307
309
305
301
303
307
304
300
303
306
304
303
306
308
305
304
308
307
306
309
311
308
306
310
312
308
308
312
312
309
309
313
313
308
309
313
311
308
311
315
313
309
311
316
313
310
312
316
314
311
314
318
313
312
315
318
315
313
317
319
315
314
318
319
315
317
321
320
316
316
320
321
317
318
321
320
316
319
322
322
319
323
320
318
321
325
322
320
322
325
323
324
329
331
327
329
333
335
332
332
339
343
337
331
330
327
321
320
325
325
321
323
327
325
320
322
326
325
328
348
380
411
414
388
360
328
285
283
315
329
330
332
333
331
330
335
338
334
334
338
339
335
336
341
342
339
344
344
340
342
347
346
344
346
351
349
348
352
357
357
356
363
375
366
358
364
372
371
369
375
379
374
370
370
368
358
350
345
339
328
322
322
320
313
312
315
314
309
308
313
314
316
310
305
305
306
310
314
311
308
311
315
313
310
312
315
312
311
314
312
310
314
314
311
309
313
317
318
314
307
307
307
311
315
315
311
312
317
315
311
310
315
314
311
313
317
315
310
312
316
316
319
316
310
308
309
314
317
313
311
315
318
314
313
318
319
314
314
318
322
318
319
323
326
329
326
320
321
324
331
333
327
318
316
316
311
314
319
316
313
315
318
315
314
316
321
333
356
378
395
378
351
327
295
265
278
313
323
318
320
325
326
322
323
328
327
324
326
331
329
327
329
334
333
330
332
337
336
334
337
341
340
338
344
348
347
346
350
355
355
356
360
365
364
365
372
374
369
373
372
365
358
355
347
334
326
324
319
311
309
310
306
302
302
305
304
300
303
307
305
301
304
308
306
304
307
309
306
304
307
309
305
303
308
309
305
305
309
309
305
304
309
309
304
305
310
309
305
306
310
309
305
307
311
309
306
309
313
310
307
309
310
307
310
314
311
309
313
315
313
312
316
319
317
317
322
324
322
325
333
331
323
315
316
314
310
310
315
313
309
311
315
314
310
312
315
314
320
342
373
397
383
356
332
298
262
277
309
317
317
321
324
320
319
324
325
322
322
326
327
323
325
329
330
326
332
332
329
332
337
336
333
337
341
341
339
344
350
350
349
355
361
359
359
364
368
365
365
369
369
363
359
358
352
339
330
327
321
313
309
312
309
305
305
308
307
303
304
308
307
304
306
311
309
305
307
311
309
306
309
313
309
308
310
313
311
308
312
314
310
313
314
309
309
313
314
310
310
315
314
309
311
316
314
310
313
317
315
312
314
318
315
312
314
318
315
312
315
319
315
314
317
320
316
315
319
321
318
317
323
325
322
321
327
331
326
326
331
333
333
336
335
329
319
317
319
317
314
317
321
319
316
318
319
316
318
327
338
361
399
412
385
354
328
291
278
303
323
326
322
322
327
328
324
324
329
329
326
326
332
332
329
330
335
333
330
332
338
338
335
337
342
340
339
343
348
346
346
351
356
355
356
362
365
363
364
370
372
368
366
371
370
362
355
351
344
331
324
319
312
311
313
310
304
305
310
308
304
306
310
309
306
309
312
309
306
311
313
309
306
310
315
312
309
313
315
311
310
314
315
311
311
315
314
311
310
315
314
310
311
316
315
311
312
315
314
311
313
316
314
312
314
317
314
311
313
318
314
311
316
317
312
317
319
314
313
318
319
314
315
319
319
314
314
318
317
313
315
318
318
314
316
321
319
316
318
322
322
322
324
327
325
324
328
332
330
329
338
342
333
325
323
322
317
314
319
321
317
317
321
323
318
318
321
322
326
344
378
412
403
375
349
312
273
285
323
322
324
326
324
322
326
329
326
324
328
331
328
326
330
333
330
329
334
336
333
333
338
341
337
339
360
376
330
319
337
347
348
351
359
361
360
364
371
371
370
371
375
372
368
366
364
352
341
335
331
323
318
320
318
312
315
315
305
300
302
308
309
305
311
311
308
307
311
311
308
311
314
313
309
311
316
315
316
316
310
308
308
312
316
312
309
313
316
312
310
314
317
313
312
315
315
312
311
316
317
314
320
322
312
306
310
317
318
314
314
318
317
314
316
320
319
315
316
320
319
316
319
326
325
313
316
323
322
327
330
327
325
330
336
335
331
330
325
318
316
317
318
314
315
321
321
316
319
328
317
307
315
338
364
390
400
379
345
315
282
271
294
316
322
326
324
323
326
329
325
325
330
331
327
329
340
332
324
326
333
334
332
333
338
339
337
338
343
345
342
345
351
350
354
361
361
359
364
369
367
366
370
373
371
367
367
366
356
347
342
335
325
319
318
316
314
310
303
302
300
301
305
305
301
302
307
307
304
305
310
309
305
307
312
308
305
307
311
309
308
309
311
307
305
308
311
308
306
308
310
307
309
318
308
299
309
310
306
306
311
311
308
308
313
314
309
309
313
312
308
312
315
313
312
315
318
317
317
320
323
322
323
330
331
322
315
313
314
310
308
312
316
311
310
314
314
310
310
314
314
319
338
370
397
384
355
333
302
264
272
307
318
316
320
325
322
319
322
325
320
324
328
325
322
327
330
325
325
330
333
330
329
335
336
333
333
340
343
339
341
349
351
349
353
358
360
359
362
367
367
364
366
369
363
356
353
350
338
325
321
321
312
305
306
307
303
301
305
305
300
300
306
305
301
300
307
307
302
302
308
308
305
305
309
305
307
312
311
307
308
312
310
306
311
313
309
307
310
312
309
308
312
314
310
307
312
315
312
311
315
317
312
311
316
317
312
311
316
316
312
313
318
316
312
313
318
316
314
315
318
316
313
316
322
321
319
323
324
322
321
326
330
329
331
337
335
325
320
320
316
314
319
321
317
318
321
321
316
316
322
329
341
372
411
411
382
354
326
284
282
311
326
326
322
324
328
325
322
326
329
326
325
330
332
327
328
332
333
329
329
335
337
332
333
338
339
337
339
345
346
343
346
352
354
354
357
362
363
362
365
370
365
369
371
365
358
354
349
337
328
324
321
314
309
310
310
305
303
307
307
304
303
308
307
304
305
309
309
305
307
311
310
306
308
312
309
307
309
313
311
307
311
314
311
310
312
315
311
310
313
316
312
310
313
315
310
310
315
316
312
311
315
317
313
313
318
314
316
319
317
314
316
321
323
321
316
317
317
317
320
323
320
316
319
323
320
319
321
323
320
319
324
325
321
320
328
330
326
328
340
336
322
324
333
339
339
336
335
329
322
321
325
323
321
323
327
325
321
323
328
325
321
328
349
379
402
406
385
353
289
284
307
324
331
332
326
326
331
332
328
328
331
333
331
331
336
338
341
333
333
334
335
338
344
343
340
344
348
348
345
349
353
352
353
359
365
363
363
369
372
370
374
383
373
365
366
371
370
359
351
347
340
330
325
326
321
313
312
315
313
309
311
314
315
310
306
305
306
312
315
312
309
314
317
313
310
313
316
313
312
315
317
311
311
317
325
310
305
311
313
310
312
315
315
312
312
316
315
311
313
317
316
312
314
318
316
313
316
320
320
318
321
324
323
321
326
328
329
337
330
322
316
313
316
315
310
311
315
311
311
316
315
312
313
315
318
331
360
391
388
361
339
317
277
262
293
319
319
316
320
324
321
319
323
326
323
323
328
329
325
326
336
330
321
323
331
333
331
332
336
338
335
337
343
343
342
346
352
352
350
355
363
362
361
364
369
367
364
366
367
360
348
345
333
313
311
312
306
304
306
306
301
299
304
304
299
299
303
304
300
301
306
307
304
305
309
307
303
307
309
307
304
307
310
308
304
308
312
308
312
308
303
301
303
307
310
306
304
308
310
306
307
312
312
308
307
312
313
310
310
314
314
309
310
315
310
311
315
314
312
316
319
316
315
318
322
321
321
326
333
329
322
321
317
311
309
312
315
311
310
314
316
311
311
315
315
312
322
345
372
397
391
370
344
307
271
285
309
316
320
323
320
317
320
324
322
321
324
327
323
322
326
329
326
325
330
332
328
328
335
333
334
339
340
337
339
345
347
344
348
356
358
357
360
365
365
363
366
370
366
361
360
358
347
336
331
328
319
312
311
312
306
303
306
306
301
301
306
306
303
303
308
307
302
302
307
308
304
304
309
307
305
305
309
308
306
309
312
308
305
308
311
309
309
312
308
306
310
312
308
307
310
313
309
308
312
314
310
309
313
315
311
310
313
314
309
311
315
313
310
313
317
316
313
314
318
315
312
315
319
316
314
318
319
317
315
320
325
322
320
325
329
326
326
331
333
332
334
337
332
322
318
320
319
315
315
321
317
317
320
319
315
316
325
337
356
394
418
399
367
340
303
278
296
319
328
324
321
324
327
323
322
327
329
324
324
328
330
325
326
332
334
330
331
336
337
333
335
340
340
338
341
349
347
345
349
355
355
354
361
367
365
365
370
374
370
369
372
372
363
356
346
335
326
324
320
314
310
312
310
304
304
309
309
305
306
309
308
305
307
310
308
305
308
312
310
306
309
314
310
307
309
312
308
308
312
314
310
310
314
315
311
315
322
312
304
308
314
315
311
312
317
317
312
313
318
318
314
316
319
317
314
315
319
317
318
321
318
315
319
328
325
312
313
320
319
318
321
324
319
319
323
325
321
322
327
326
321
321
327
326
321
323
327
328
326
333
327
321
322
328
333
330
331
333
337
336
334
339
345
340
334
333
330
324
321
325
328
326
328
332
323
317
320
325
325
324
340
370
413
396
371
341
298
276
303
325
327
328
333
331
332
334
328
324
325
331
335
333
331
335
338
335
334
338
341
338
338
342
346
343
343
348
354
356
346
347
352
352
356
364
365
365
368
373
373
370
373
378
375
369
368
367
357
345
342
345
328
314
315
318
312
310
313
308
306
309
313
309
306
310
311
307
309
314
321
309
303
309
313
310
313
317
316
311
312
317
314
310
313
316
314
310
313
320
320
306
305
312
312
309
312
316
313
310
314
316
313
312
315
316
311
311
315
316
311
312
323
318
305
307
316
318
316
318
322
323
323
328
326
324
330
335
328
320
318
318
313
311
320
321
308
306
313
317
314
312
317
317
315
327
355
383
389
370
351
327
290
264
285
313
319
325
328
318
314
319
326
326
322
323
328
326
324
328
332
328
326
330
334
332
330
333
337
335
336
346
343
332
335
346
349
350
356
360
358
361
367
368
364
366
370
369
362
356
354
344
332
329
330
310
300
304
308
305
300
302
304
299
297
301
305
302
299
303
306
302
301
307
308
304
303
310
310
306
310
315
304
300
303
310
311
307
308
313
311
307
309
313
310
307
310
312
310
307
313
310
307
311
313
309
307
312
313
309
308
313
314
310
311
316
317
313
317
321
321
319
321
328
331
325
320
319
313
308
310
314
312
308
311
314
311
309
311
315
311
308
318
338
361
385
387
363
335
307
275
270
294
312
319
321
316
317
321
321
317
319
324
325
322
327
326
323
325
330
329
327
329
333
332
330
334
339
337
336
341
345
344
345
351
355
355
355
361
366
364
364
369
368
364
362
361
356
344
336
332
325
315
313
314
310
304
303
307
305
301
303
306
304
301
304
307
304
302
304
308
305
303
308
311
307
305
308
307
307
311
311
308
308
312
312
307
308
313
312
309
309
313
312
310
311
315
313
309
312
314
313
309
311
315
313
312
315
318
314
312
315
318
315
313
317
318
315
314
318
319
316
315
319
320
316
315
320
320
318
318
322
320
317
319
323
322
318
320
324
322
319
326
323
319
321
326
323
320
324
325
322
320
323
325
322
321
326
330
328
326
331
334
330
329
335
337
335
338
342
338
329
324
325
323
319
322
326
324
320
322
326
323
319
321
326
331
343
374
411
412
389
366
335
291
289
315
328
326
325
328
329
325
324
329
330
327
331
331
327
329
334
333
329
330
336
336
333
335
340
338
336
341
346
345
343
347
353
353
353
359
364
363
363
370
373
370
370
374
374
370
366
364
357
345
338
335
328
319
315
317
313
307
308
311
309
306
307
309
306
304
307
311
308
304
307
310
308
306
310
309
308
312
313
309
308
312
314
309
310
314
314
311
311
315
315
311
311
315
313
310
312
316
314
310
313
317
315
313
314
317
315
311
314
317
314
312
315
319
316
313
317
320
317
316
319
320
316
315
319
319
317
317
320
319
316
317
321
321
317
319
323
322
318
323
321
318
319
323
320
317
321
325
323
319
322
325
322
321
324
327
323
322
325
326
322
323
333
337
335
337
339
338
338
342
345
341
333
326
325
323
318
319
323
322
318
320
323
320
317
320
331
344
371
409
413
387
355
325
289
290
311
325
328
323
321
325
327
322
327
328
323
325
329
328
325
326
332
331
327
329
334
334
331
335
339
338
338
341
346
344
343
349
354
354
355
361
366
365
365
370
373
370
369
372
372
363
357
355
348
334
327
324
320
312
309
312
309
305
304
308
306
302
304
308
307
303
305
308
306
304
306
307
305
308
311
307
306
309
311
307
305
310
312
308
308
311
312
307
307
313
312
308
309
314
314
309
310
315
313
310
312
315
312
309
312
316
313
310
313
316
313
309
313
317
313
311
316
318
313
312
316
317
313
313
318
318
314
312
317
318
314
315
319
319
315
320
320
317
318
321
318
317
320
322
321
317
319
321
320
318
322
325
325
328
334
340
337
332
338
343
342
345
340
325
314
313
321
321
315
316
321
320
316
318
321
320
320
334
362
395
411
393
367
334
293
276
303
320
322
327
335
327
315
320
326
324
323
327
331
327
333
335
330
329
334
336
333
333
340
341
339
344
353
341
337
342
351
353
352
356
363
363
362
367
373
373
372
376
379
375
371
375
375
355
344
341
337
329
322
321
320
313
310
314
313
308
307
312
311
307
309
317
316
303
303
311
312
309
311
316
313
310
313
314
311
315
318
314
311
316
323
317
306
310
315
313
312
316
318
314
313
318
319
315
314
317
316
313
314
318
317
315
322
322
310
308
313
319
316
314
316
321
319
316
318
323
319
316
318
322
318
317
324
330
313
308
317
321
319
319
322
325
320
321
329
332
333
337
337
335
337
344
343
325
315
318
319
316
316
320
319
315
318
321
319
315
320
337
361
386
395
378
353
326
285
266
287
314
325
325
321
323
328
328
324
325
331
329
325
327
332
333
330
338
337
329
328
332
338
338
335
339
344
343
342
346
350
349
349
355
360
360
365
370
374
369
367
370
370
370
371
367
357
351
348
338
327
323
322
316
310
309
311
312
312
302
303
303
302
305
309
307
305
309
312
309
306
309
313
310
309
314
323
312
301
306
312
311
310
313
314
312
310
314
313
308
309
313
312
309
310
314
313
313
317
307
306
311
317
313
310
313
316
313
311
315
319
314
311
316
318
314
312
317
319
314
315
325
317
308
311
318
319
317
321
331
334
331
329
332
334
331
332
333
328
316
312
315
313
309
313
321
316
304
307
314
312
316
338
365
383
378
360
338
309
274
269
298
316
320
321
319
320
325
325
321
320
325
325
322
324
329
327
324
327
332
330
328
338
334
326
326
335
340
339
338
342
348
347
347
353
356
355
358
365
368
364
365
370
369
365
362
361
355
343
334
331
323
315
311
311
307
303
303
306
304
300
302
305
302
299
303
310
297
298
304
303
303
307
309
306
304
308
309
306
306
310
310
306
306
310
310
306
306
311
309
305
307
311
310
308
309
313
311
308
310
313
310
307
311
314
311
309
311
314
311
309
313
315
312
309
313
315
311
310
315
316
311
310
316
316
312
313
318
317
313
314
318
314
315
321
322
319
320
326
325
321
323
328
329
331
335
332
324
316
316
317
314
314
317
318
315
315
318
318
313
312
321
332
348
377
403
390
361
337
308
276
288
312
324
323
320
321
324
322
321
323
327
324
321
324
327
326
324
327
331
328
327
332
335
331
335
337
335
334
340
342
340
342
348
352
349
352
359
362
361
364
368
367
364
367
370
366
358
354
350
338
329
327
325
315
310
312
312
307
305
309
310
305
304
308
309
305
304
308
309
304
305
309
310
306
306
310
310
307
308
312
310
306
308
313
311
308
309
313
308
310
313
311
309
312
314
311
311
315
316
311
311
316
317
312
311
316
318
313
313
318
319
314
314
319
320
316
316
321
319
315
317
322
320
317
318
321
319
316
318
322
320
317
320
322
320
318
320
322
320
319
322
324
320
322
329
330
325
325
332
332
328
330
340
336
334
333
325
319
319
323
321
317
321
324
322
319
321
323
320
320
333
353
379
406
403
380
349
314
284
297
316
324
330
330
324
324
329
328
325
326
331
331
327
328
332
333
330
331
336
335
332
335
340
337
335
339
345
342
341
345
351
349
349
355
359
358
365
369
369
369
374
377
372
372
375
370
361
353
349
341
330
324
324
319
313
312
315
311
307
308
311
309
306
309
312
308
307
310
313
309
307
312
314
310
309
313
315
311
309
313
315
312
311
316
316
312
311
316
315
312
312
316
316
312
314
317
315
312
314
317
312
314
318
315
313
315
317
314
313
316
318
315
314
317
320
316
315
318
320
316
316
321
321
315
317
321
320
317
317
321
321
317
319
323
320
317
320
324
321
318
320
324
320
317
320
323
320
318
321
325
326
326
330
333
334
335
337
338
337
337
340
337
328
322
321
316
317
321
321
317
318
322
320
316
321
336
355
384
409
400
367
335
300
277
294
313
323
327
322
319
322
326
322
321
325
327
323
322
328
330
326
326
332
332
329
331
336
337
334
335
340
341
339
341
347
348
346
351
356
357
355
361
367
367
367
372
375
373
374
374
366
358
355
349
336
329
326
322
316
312
314
312
307
307
313
318
305
299
305
307
304
305
312
311
307
309
314
312
310
313
316
313
310
314
317
314
311
315
318
315
317
320
310
306
309
315
317
314
312
317
317
313
313
317
317
315
316
320
320
316
316
321
317
320
327
328
314
314
320
319
318
321
324
321
319
322
325
322
319
323
324
322
321
323
326
329
320
316
320
319
320
327
331
329
330
336
338
332
331
339
342
340
342
341
328
325
328
319
316
317
321
323
319
316
321
324
324
338
368
400
403
379
353
327
284
270
326
330
327
321
322
322
325
331
329
325
327
331
331
327
329
334
333
330
332
336
335
335
340
347
334
327
337
344
343
341
348
353
352
353
358
361
363
363
368
370
368
367
371
371
365
367
366
347
333
331
331
325
316
313
314
309
305
308
310
306
301
305
308
307
306
303
302
305
309
311
306
306
313
313
308
307
313
313
309
310
320
315
303
304
311
311
307
309
311
309
307
310
313
310
307
311
315
312
308
310
314
316
316
308
309
309
309
313
316
312
309
313
316
314
314
320
322
317
318
323
324
322
326
337
329
321
320
322
312
312
315
314
312
315
318
315
313
313
318
315
312
320
342
366
386
383
367
341
302
269
268
296
317
323
323
320
321
326
328
324
323
328
329
325
326
330
331
328
330
334
336
335
328
331
334
333
337
340
338
338
344
349
347
346
352
357
356
357
363
367
363
363
372
367
366
366
362
354
345
330
322
316
314
313
310
304
303
306
305
300
300
305
302
299
302
307
303
301
305
309
306
303
306
310
313
306
301
305
304
304
308
310
306
305
307
308
304
304
308
308
304
304
308
309
305
306
310
309
305
308
312
316
304
302
308
309
312
316
314
312
315
318
316
314
319
322
320
322
328
326
317
312
315
313
308
307
311
312
308
309
313
315
317
308
306
310
321
345
374
390
371
350
331
295
260
278
311
318
315
319
321
318
317
321
324
320
320
325
327
324
321
326
331
332
322
324
327
325
328
334
332
334
340
342
338
341
348
348
347
351
358
358
357
362
367
365
362
365
367
361
355
353
346
334
326
323
321
312
307
308
308
303
303
315
306
294
296
304
305
302
304
307
307
304
305
310
309
304
306
310
309
306
309
312
309
307
311
314
311
309
312
313
308
308
317
312
309
314
315
311
309
314
313
310
311
316
315
311
311
317
317
312
312
317
315
313
315
317
316
312
314
319
317
314
316
320
317
316
318
320
317
316
320
321
318
317
322
326
323
321
326
328
324
326
333
335
332
331
333
327
319
318
320
319
317
318
322
319
320
324
321
319
325
340
356
383
407
398
368
339
307
283
298
318
328
330
324
323
328
329
325
325
330
331
327
326
331
332
328
330
335
334
332
334
339
337
335
337
342
339
338
343
348
347
345
351
357
355
355
362
366
364
365
369
371
368
367
370
369
359
353
349
330
324
323
317
312
310
313
312
309
308
310
309
304
306
311
309
306
308
314
311
306
309
313
311
309
312
316
312
309
313
317
314
310
313
315
312
312
314
315
312
313
317
315
313
313
317
316
312
313
319
317
311
313
317
316
313
315
317
316
312
314
317
315
313
318
314
313
317
319
316
315
317
317
315
314
319
319
315
315
319
322
318
319
323
321
317
318
322
321
317
319
322
321
319
321
325
322
320
323
326
321
319
323
325
322
321
327
330
325
323
330
332
328
329
334
337
337
336
335
329
321
319
322
320
316
317
323
322
319
323
320
317
321
334
349
376
408
405
378
347
317
285
291
313
326
330
325
322
326
327
323
322
327
329
323
323
330
332
330
330
334
335
331
332
336
335
332
334
342
341
338
340
346
347
348
351
354
353
353
359
366
365
363
369
372
368
367
372
373
367
366
352
331
327
325
321
314
311
313
311
307
306
310
307
304
306
310
307
306
308
312
309
305
309
312
311
316
314
307
305
307
312
316
312
310
313
315
313
312
314
315
311
311
315
316
313
314
321
321
307
308
314
314
311
313
316
314
312
315
319
317
315
317
320
316
315
323
318
316
318
323
326
317
313
316
315
317
320
321
318
319
323
321
319
321
325
324
320
321
326
325
320
322
333
327
313
319
329
330
326
329
334
334
332
335
342
341
337
336
336
325
320
324
328
324
321
327
333
321
316
323
326
323
323
336
357
382
406
402
376
315
283
285
311
327
332
330
327
330
333
331
330
335
343
336
323
328
336
335
333
336
340
338
337
342
345
341
341
346
349
347
347
352
354
352
355
361
363
363
371
373
365
362
370
378
376
373
372
374
368
360
353
349
339
330
325
322
316
312
313
314
308
306
310
307
305
309
311
308
311
317
308
303
305
313
314
309
310
314
314
310
312
316
313
309
310
313
311
308
310
313
311
310
314
321
310
300
305
312
310
309
313
314
309
307
313
314
310
309
313
315
311
311
315
314
309
310
315
316
311
312
317
313
310
311
316
315
314
323
322
325
319
319
320
322
329
336
330
322
321
321
314
312
315
316
313
312
317
316
312
313
317
316
313
321
345
369
389
380
358
332
300
267
276
305
318
325
319
314
316
322
325
322
321
325
327
324
323
328
331
327
325
329
334
331
330
334
337
334
335
340
341
340
346
347
344
348
355
357
359
368
363
359
360
366
371
368
364
364
362
351
339
335
330
320
313
312
310
304
303
306
307
302
301
304
304
301
300
305
305
302
304
308
308
303
304
310
310
311
304
304
304
304
307
311
307
304
308
312
309
304
308
311
308
305
308
307
306
310
312
308
306
311
312
309
309
312
312
308
308
314
314
309
309
313
312
309
311
314
312
309
311
316
314
309
312
317
315
312
315
317
315
313
317
320
315
312
317
319
317
316
319
319
315
314
319
320
319
320
325
323
320
324
329
328
325
328
333
334
330
327
320
315
315
319
318
314
316
320
317
315
318
319
316
320
335
358
387
406
392
366
335
295
277
300
317
322
327
325
321
320
325
325
323
324
329
327
324
325
330
329
329
331
334
332
330
334
338
336
333
339
343
341
340
345
349
347
348
353
356
356
357
364
369
367
372
372
368
366
368
363
352
344
342
334
323
319
318
314
309
310
312
307
304
306
310
307
303
306
308
307
304
307
310
306
305
309
311
308
307
312
314
309
308
312
312
309
310
314
312
309
310
313
311
308
311
314
312
309
312
317
314
310
312
315
311
309
314
316
313
316
317
314
312
316
316
313
313
317
318
314
314
317
318
315
316
320
319
316
315
320
320
315
317
321
320
316
319
323
320
318
321
324
320
318
321
324
320
319
323
326
323
320
325
329
325
323
329
334
332
331
337
339
337
338
339
334
327
322
323
322
318
323
323
319
319
323
322
318
321
331
342
364
404
423
385
347
323
289
282
306
324
329
324
323
328
329
327
325
330
332
328
327
332
332
328
329
334
334
332
333
338
339
338
340
345
344
341
345
351
350
351
359
353
350
352
360
367
367
366
373
376
373
372
376
376
362
359
352
340
333
332
326
318
316
318
315
309
309
312
309
306
310
317
319
305
304
310
310
309
311
315
312
311
314
315
312
312
317
318
313
313
318
319
315
315
318
319
317
322
318
311
309
313
319
319
314
315
319
318
314
316
320
320
317
317
321
319
317
319
319
317
319
322
319
320
328
320
311
313
321
324
320
318
322
323
320
319
322
323
318
319
323
324
319
320
327
331
316
316
324
328
328
329
334
336
332
334
339
339
337
338
337
327
319
321
323
320
324
319
315
314
315
319
322
320
332
362
392
402
383
360
334
296
287
315
321
327
334
321
317
324
330
328
324
328
333
329
327
330
335
333
331
334
337
335
335
344
345
332
334
343
347
344
346
352
355
352
353
361
365
364
367
372
373
371
372
378
377
371
369
369
366
348
333
332
327
319
317
317
312
309
310
311
307
304
309
311
305
310
312
309
308
311
313
312
316
310
307
306
309
315
315
312
311
316
315
311
311
315
313
310
312
316
313
309
311
313
312
310
313
316
312
309
312
315
311
310
314
315
311
310
314
315
311
311
319
323
308
303
311
312
310
310
316
316
311
311
316
315
311
313
315
312
317
322
319
316
320
324
322
321
326
331
329
324
323
318
312
310
313
313
307
307
315
315
312
311
315
315
309
312
331
355
377
384
367
340
311
280
265
283
306
315
320
318
316
319
323
318
316
319
322
320
318
323
326
324
322
325
327
324
324
331
332
329
336
336
333
336
342
343
341
344
351
353
352
356
363
361
358
362
367
365
361
362
363
354
342
336
331
319
311
311
310
303
298
301
303
298
297
300
300
297
298
301
301
298
298
304
303
300
301
304
305
302
304
307
305
302
304
308
306
303
305
309
306
302
306
310
304
307
311
307
305
309
310
306
305
308
310
306
306
312
312
308
308
313
312
308
309
313
311
308
310
315
314
310
312
316
314
311
313
317
315
312
314
318
316
313
316
319
316
314
318
320
316
314
318
320
318
319
325
327
321
321
327
327
324
326
332
334
332
331
323
316
315
319
317
314
317
320
317
313
316
320
317
315
325
344
367
397
405
385
354
322
287
288
308
319
326
326
322
321
327
327
322
322
328
329
327
327
332
332
329
329
334
334
331
334
338
336
335
339
343
341
340
344
349
347
347
353
360
358
360
366
370
368
373
375
372
370
372
370
360
353
349
341
329
323
323
319
311
310
312
310
306
306
311
309
306
308
312
309
305
308
312
310
307
309
313
310
308
311
312
310
309
313
314
310
309
313
316
312
311
315
314
311
312
315
314
311
313
316
314
310
311
316
315
312
313
317
313
314
317
314
312
315
317
314
312
316
319
315
313
318
319
316
314
318
319
314
315
321
320
317
317
321
321
317
317
321
321
318
319
323
323
320
321
324
322
319
321
325
323
321
322
325
322
319
322
327
326
327
333
336
334
338
343
343
339
339
343
341
333
326
323
319
318
322
321
319
320
323
321
316
318
328
338
360
398
416
395
364
336
298
280
301
321
328
325
322
325
326
324
322
327
329
326
325
328
331
328
328
332
333
330
331
336
336
334
335
339
340
338
341
347
347
346
350
356
355
355
361
367
367
366
371
374
374
374
375
369
362
358
352
341
332
332
327
316
311
315
313
308
308
311
310
307
308
310
310
307
309
313
312
308
309
313
312
310
314
316
313
310
312
315
313
311
314
316
313
313
316
317
315
317
324
314
306
308
316
316
313
314
318
318
315
315
318
318
314
316
320
315
316
321
318
315
317
321
318
315
319
323
326
320
313
316
317
316
319
322
319
319
322
324
319
318
323
324
320
319
325
324
319
320
324
324
322
322
325
324
326
327
323
325
326
331
336
337
336
339
343
341
338
339
339
332
322
323
326
319
315
321
324
320
319
323
324
324
332
357
387
404
391
361
329
295
276
295
320
324
327
327
325
327
330
329
326
329
334
338
330
324
329
330
330
334
339
336
333
338
342
340
340
343
347
344
344
351
353
351
352
360
365
366
359
364
370
370
372
377
376
371
373
374
367
356
351
346
335
322
323
322
307
303
306
305
303
306
308
304
303
308
310
306
305
309
310
307
307
312
314
315
312
306
306
306
310
315
313
309
309
314
312
309
311
314
311
308
311
315
313
314
318
309
305
306
311
315
312
312
315
316
311
310
314
315
312
311
317
317
313
312
318
314
308
314
317
313
315
319
319
315
317
321
318
314
319
324
323
324
329
333
331
331
335
341
341
330
325
326
322
315
317
318
314
313
317
317
314
314
318
318
314
322
346
372
387
378
357
333
303
271
276
304
317
321
324
322
320
325
333
326
315
320
327
324
323
328
326
326
331
331
327
328
334
336
333
334
339
340
339
340
346
348
347
350
357
359
358
362
366
365
365
367
371
368
364
364
362
352
340
335
329
320
313
311
309
304
301
303
304
300
297
300
302
298
298
303
303
301
300
304
304
300
301
307
305
301
303
307
313
298
303
304
302
305
308
305
303
306
308
306
304
307
309
305
304
308
309
306
305
308
309
305
304
309
310
305
306
310
309
306
306
311
310
306
307
312
311
307
308
313
311
308
310
314
311
309
313
315
312
309
312
314
311
309
314
316
312
313
321
322
318
319
326
325
326
334
336
330
326
325
319
312
312
316
315
311
313
317
316
312
314
317
316
318
335
362
389
396
379
355
324
282
276
303
316
318
323
323
318
318
323
325
321
321
325
325
322
322
327
328
325
327
331
329
326
329
336
335
332
335
339
338
337
342
347
346
347
357
357
357
364
368
366
365
369
372
368
367
367
363
351
343
340
333
322
316
317
314
308
306
310
308
303
305
309
306
302
304
307
306
303
306
310
308
305
307
312
309
307
310
313
309
307
310
314
310
308
311
312
308
308
313
314
310
310
315
314
309
310
316
314
311
316
314
310
312
316
314
311
314
317
314
311
315
319
315
313
317
319
315
313
317
319
315
314
317
318
316
316
319
318
316
316
321
321
316
317
320
319
315
316
321
320
316
317
322
324
323
328
334
332
331
334
340
339
337
337
337
332
321
320
322
317
314
319
317
316
320
321
316
321
338
363
392
409
396
366
332
293
282
304
318
323
327
325
321
323
328
325
323
326
329
327
325
329
332
329
328
332
335
331
330
336
338
336
337
342
344
342
341
348
351
350
351
359
361
360
363
370
371
370
372
377
377
373
372
373
365
356
344
332
323
322
321
314
309
311
313
308
306
309
311
307
306
310
311
306
305
310
311
305
306
310
312
307
307
312
313
310
310
314
312
309
310
314
314
310
311
317
314
310
312
315
313
311
314
317
313
311
314
317
315
313
317
317
314
313
317
318
315
314
319
318
314
318
317
314
315
320
319
316
316
320
320
316
317
321
319
316
318
322
320
317
321
323
319
316
320
322
319
318
321
323
320
320
325
328
330
322
318
320
321
325
332
335
332
335
343
343
339
340
343
340
335
333
332
323
317
319
323
321
319
323
326
322
319
320
335
362
398
412
391
364
342
305
275
296
323
329
326
325
330
330
326
327
331
331
333
328
326
326
325
330
336
334
330
335
340
338
335
340
344
342
341
346
351
349
346
352
358
357
357
365
371
373
362
365
373
372
372
376
376
369
366
364
355
343
337
333
327
318
318
314
308
309
317
315
300
301
307
308
306
308
311
309
307
311
314
311
309
313
315
313
311
316
316
313
315
323
311
306
308
315
315
311
312
315
314
312
314
317
315
311
314
317
314
310
313
321
321
307
308
315
313
312
316
318
314
314
318
318
314
314
319
320
317
320
323
323
312
313
316
316
320
328
330
328
332
334
332
332
335
339
335
328
324
328
317
306
311
317
315
313
316
319
318
314
317
329
349
375
394
381
355
328
302
276
280
300
316
319
318
321
326
326
322
325
329
329
325
326
330
328
326
331
335
332
331
342
329
330
337
343
341
340
346
349
348
349
354
358
357
359
366
369
367
368
374
377
380
371
367
366
359
353
349
340
329
324
322
315
309
309
312
307
305
306
308
305
305
315
308
300
301
308
311
307
305
310
312
309
307
312
314
309
309
312
313
308
308
317
318
303
309
310
307
309
313
310
307
309
312
310
306
309
312
311
307
310
314
317
311
305
308
306
306
312
313
309
308
311
314
310
310
314
315
311
311
316
317
312
311
316
317
313
316
324
327
328
330
332
329
327
332
335
330
330
316
308
308
308
312
315
311
309
313
316
310
319
338
359
382
384
362
333
308
278
269
293
314
322
320
317
323
327
317
313
318
325
326
322
325
327
325
323
327
331
329
326
330
334
332
330
334
338
336
336
342
345
343
344
352
356
354
354
362
365
364
365
370
370
366
366
368
362
353
346
341
332
321
318
310
304
305
310
314
301
296
301
300
300
304
305
304
304
307
309
306
305
310
310
306
306
310
311
307
307
311
312
308
308
313
311
308
310
312
310
307
309
314
312
308
310
314
311
308
312
315
312
309
313
316
312
310
314
317
313
312
316
317
312
312
316
318
313
317
318
313
314
318
318
314
315
320
320
316
316
320
319
316
317
321
319
315
318
321
319
319
323
328
328
328
335
338
333
332
339
342
335
331
330
324
315
315
319
319
316
315
319
318
314
315
321
328
341
369
404
401
373
348
321
280
280
308
322
322
319
321
324
319
323
325
322
320
324
327
323
322
326
328
326
328
333
333
330
331
336
336
334
336
342
342
340
343
349
350
349
354
361
363
361
365
370
369
367
370
372
366
361
359
353
342
331
328
324
315
311
312
311
306
305
307
308
303
303
307
307
303
303
309
309
305
305
308
305
307
312
309
306
308
312
310
307
310
313
311
307
310
313
310
309
313
314
311
310
313
316
313
312
315
316
313
313
316
316
312
312
317
317
312
314
319
318
314
315
319
319
315
318
321
320
316
319
323
320
317
321
323
319
317
320
322
319
317
322
324
319
322
322
319
320
323
324
321
321
325
325
321
322
327
326
322
323
327
326
326
332
339
339
338
341
343
342
340
344
342
336
331
326
323
319
316
321
323
319
318
322
322
318
317
327
341
362
399
414
393
361
330
295
284
304
321
328
326
322
323
328
326
323
326
328
324
328
331
328
327
330
334
331
330
334
337
335
334
339
341
338
339
345
348
345
346
354
356
355
358
365
367
365
369
374
374
371
373
374
370
361
356
352
342
331
328
325
316
310
312
312
306
304
307
309
305
303
307
308
304
304
307
307
304
304
308
309
304
306
310
306
306
310
310
306
308
312
310
306
309
313
310
307
310
313
310
308
311
313
309
308
311
314
310
309
313
315
310
308
313
316
311
311
315
316
312
312
315
314
311
314
317
315
313
314
319
317
313
315
319
318
315
317
319
318
315
318
321
318
316
320
322
318
321
323
319
319
323
325
323
328
337
340
337
337
341
342
338
338
339
334
323
319
320
319
315
316
321
319
316
320
323
318
317
328
349
375
405
406
383
349
312
279
290
311
320
325
326
321
319
325
327
322
322
327
328
324
325
331
330
327
330
334
332
329
333
338
334
338
343
342
341
345
351
349
348
354
360
360
361
367
372
370
369
375
378
374
372
374
371
361
354
349
341
329
324
322
318
311
310
312
312
313
311
305
301
300
305
310
307
305
309
312
310
308
312
315
311
308
312
315
311
309
313
315
311
311
314
315
311
312
320
320
309
310
313
311
312
316
314
311
314
317
315
312
315
319
317
313
315
319
317
314
316
319
316
314
318
322
320
324
320
314
312
315
320
321
317
318
322
322
319
320
323
322
318
319
323
324
320
324
332
334
336
339
338
337
343
339
335
331
327
323
321
318
320
322
318
317
320
323
320
317
323
338
362
390
405
384
351
325
300
271
281
311
325
325
322
325
328
327
324
325
330
329
327
329
332
330
328
330
334
332
331
335
339
337
336
340
343
340
341
347
349
347
350
362
355
349
356
365
369
366
368
373
373
370
371
374
360
354
348
339
329
324
324
315
307
309
311
306
303
305
307
304
301
305
307
304
303
307
309
306
306
311
311
307
306
310
311
308
308
311
311
307
307
311
310
306
307
311
309
306
307
311
309
307
308
312
310
307
310
312
310
308
311
313
309
308
311
313
309
308
313
309
309
314
314
310
310
315
315
310
311
315
315
311
312
316
314
311
313
316
314
311
313
317
316
314
320
326
326
327
331
331
328
330
336
335
328
320
316
315
312
310
313
315
311
311
315
315
312
314
325
342
364
393
393
366
334
307
273
272
299
316
321
319
319
322
319
317
320
323
319
317
322
325
323
321
324
327
325
325
329
331
328
329
335
336
332
335
340
343
341
344
350
352
351
355
362
363
360
364
369
368
365
368
368
360
352
347
342
331
321
319
317
310
306
306
307
301
300
303
305
300
300
304
305
302
302
306
302
303
308
308
304
306
310
309
306
308
312
309
305
308
313
310
308
311
313
310
308
310
313
309
307
312
314
310
309
313
314
310
309
314
315
312
311
314
315
311
312
316
315
311
313
317
315
311
314
318
316
313
314
318
315
313
315
319
317
314
319
321
317
315
321
318
316
320
322
318
316
321
321
317
319
323
322
319
319
323
322
319
321
327
329
326
328
334
337
334
336
340
339
336
338
336
329
320
320
322
319
318
321
323
319
318
321
323
317
321
337
361
390
410
397
368
335
296
279
300
316
324
328
326
321
323
327
325
325
329
327
325
328
332
330
329
331
334
332
331
336
339
335
334
339
343
340
341
346
349
348
350
355
358
355
359
366
368
366
368
373
373
370
371
372
367
357
351
347
337
327
323
322
315
308
310
310
307
305
307
309
306
304
307
309
306
305
309
310
306
306
311
308
308
313
313
309
309
314
313
308
310
314
313
308
309
312
311
308
311
315
312
309
312
316
313
311
313
316
312
311
314
317
313
311
315
316
312
312
316
317
313
313
317
318
315
313
318
318
314
316
319
317
313
316
320
318
314
317
320
318
316
318
320
318
315
321
318
317
320
322
319
317
321
323
324
325
328
330
331
335
337
336
336
338
342
338
328
324
324
320
316
317
322
320
317
318
321
319
317
319
327
337
359
394
416
394
363
336
299
275
297
322
329
325
324
327
328
326
325
330
330
327
328
332
332
329
331
336
334
334
340
340
337
339
344
343
341
346
350
349
348
353
358
357
357
362
368
367
368
373
376
374
374
378
381
380
365
358
352
342
335
334
327
318
315
317
314
309
308
312
311
306
308
313
311
308
310
314
312
309
313
317
313
311
319
324
310
305
312
315
312
311
315
314
312
316
317
313
312
316
317
312
313
318
318
312
313
317
316
314
314
318
317
312
316
320
318
315
323
319
309
309
315
320
316
315
318
319
316
315
319
321
317
316
321
321
316
315
320
323
320
323
331
334
334
334
335
334
335
338
341
341
323
312
316
316
313
320
318
315
317
321
317
315
328
353
379
397
387
361
331
298
270
279
307
321
324
325
322
323
327
326
322
324
329
327
324
326
330
331
328
330
332
331
329
332
337
336
334
338
342
340
340
345
350
348
348
353
359
359
360
366
369
366
367
371
373
368
368
369
364
344
340
331
320
315
315
311
304
303
307
303
299
301
304
301
299
302
305
302
300
303
307
304
302
306
308
305
303
306
308
304
303
308
309
304
304
308
309
303
303
308
307
304
306
308
308
305
307
310
309
305
307
312
310
307
310
313
311
308
310
313
311
308
312
312
310
313
315
311
310
314
315
311
311
315
315
311
311
316
316
312
312
317
316
312
314
320
319
316
320
323
321
319
323
328
326
324
330
336
333
325
322
320
315
312
316
318
314
313
317
319
314
313
318
319
320
334
363
394
404
385
359
330
287
269
298
318
321
326
322
319
323
327
326
323
326
330
328
325
329
332
329
327
331
334
331
330
335
337
334
335
340
341
340
342
347
349
349
352
360
361
358
361
368
369
369
370
374
372
368
367
364
355
345
339
334
325
316
315
315
309
305
306
308
304
301
305
308
304
302
306
307
304
309
309
306
306
311
311
307
307
312
311
308
309
312
310
307
309
313
312
307
310
313
310
309
312
315
312
309
313
315
312
311
314
316
312
311
315
315
311
312
317
317
314
314
318
318
313
314
319
319
315
315
319
318
314
316
319
318
315
318
321
318
316
319
318
316
320
323
322
323
327
327
325
326
330
332
329
329
336
341
334
328
327
324
317
316
322
322
318
320
323
321
317
319
323
322
326
345
377
409
409
385
358
323
279
282
312
322
324
327
327
323
322
326
329
326
325
330
330
327
327
331
331
328
329
335
335
332
338
339
337
339
345
344
342
345
352
351
350
356
361
362
362
367
371
370
370
372
375
370
367
368
363
352
342
337
331
321
316
316
314
308
306
309
308
302
303
307
307
302
304
309
307
304
306
309
307
305
309
313
309
308
310
313
309
308
309
312
309
307
311
314
308
312
314
310
309
313
313
309
309
313
312
310
310
314
313
310
311
315
314
309
311
315
314
311
313
317
314
311
314
316
314
312
315
317
314
313
317
319
314
313
318
320
315
315
318
319
316
315
319
320
317
319
325
326
322
323
327
330
327
329
335
335
335
338
329
323
322
323
320
317
321
324
320
318
321
324
321
319
323
334
349
378
415
413
378
348
319
281
284
313
327
328
325
326
330
330
332
332
325
322
323
328
332
332
328
332
335
333
333
337
339
337
336
341
345
342
342
347
351
348
350
355
358
356
358
365
369
368
375
375
372
380
383
367
357
358
357
347
335
330
329
322
314
312
314
310
306
308
310
307
305
309
310
306
304
309
315
313
300
303
308
306
307
311
311
308
309
313
314
309
309
315
316
310
310
315
313
309
312
315
313
313
318
311
306
306
311
316
313
311
315
317
312
315
318
314
312
316
317
314
313
316
317
316
321
316
313
313
318
322
325
322
322
326
327
327
332
334
327
317
315
317
314
311
315
318
315
313
317
320
323
318
310
312
321
343
375
399
384
357
334
305
267
271
307
324
321
320
326
328
323
324
329
329
326
327
331
326
328
333
332
330
335
338
336
334
337
342
340
340
345
349
347
348
353
357
355
356
363
366
365
366
371
374
371
371
375
374
366
361
357
349
335
328
325
319
310
308
310
306
302
303
306
303
300
302
306
305
309
302
300
300
303
306
306
303
303
307
309
306
308
309
305
305
309
310
305
305
309
309
304
303
307
307
305
307
311
309
304
306
310
308
306
308
311
308
306
308
311
308
306
309
312
307
306
310
314
312
311
315
318
316
315
319
322
321
325
329
324
314
310
312
310
307
309
312
310
307
308
312
310
307
309
312
334
364
395
391
362
338
312
269
265
298
317
315
314
318
319
316
317
320
322
319
320
324
324
320
323
329
328
323
325
330
330
327
330
335
334
332
335
341
340
338
342
349
349
349
355
359
357
359
364
369
367
365
369
369
362
356
353
347
334
325
322
318
308
306
307
302
301
305
303
299
301
306
305
301
303
307
305
304
307
311
308
305
309
313
309
307
310
312
309
308
312
314
311
309
313
315
310
309
314
315
311
311
315
315
311
312
316
315
311
313
318
316
312
315
319
316
313
315
319
317
313
316
320
316
314
317
321
317
319
322
318
317
320
322
319
318
321
322
318
318
322
323
322
324
328
327
324
327
330
330
328
333
340
339
331
327
326
321
317
319
323
319
317
319
323
320
318
321
323
321
328
351
384
411
407
385
356
317
280
291
317
324
326
329
328
323
325
330
329
325
326
332
328
330
334
332
330
334
338
336
333
338
342
339
338
343
346
344
343
348
352
351
352
360
363
362
364
370
373
370
371
376
377
371
369
368
361
350
343
338
330
320
317
317
313
308
308
310
308
304
306
310
307
304
308
310
307
306
309
310
306
306
310
313
309
308
312
308
309
313
313
309
310
314
314
310
311
315
314
309
311
316
316
312
312
316
314
311
314
318
315
312
315
318
316
312
315
317
314
313
317
318
314
315
318
319
315
314
319
320
315
316
320
320
317
317
321
320
316
318
321
319
316
317
321
320
318
322
331
318
314
321
319
318
323
328
325
322
327
333
330
329
333
338
337
337
338
333
324
320
322
322
319
321
325
324
321
320
324
326
326
318
325
343
370
406
412
386
352
322
287
283
308
326
331
328
326
330
331
326
326
332
333
331
336
338
329
324
329
336
337
334
335
340
338
340
346
345
342
345
352
351
349
354
360
360
358
363
369
368
368
373
382
379
366
368
372
368
362
358
354
342
333
330
327
319
315
316
314
309
308
311
311
306
307
313
318
310
301
306
309
308
309
313
311
310
312
315
312
309
313
316
312
310
313
315
313
311
316
312
310
313
315
312
315
322
311
306
308
315
315
311
311
315
316
312
314
317
315
311
313
317
315
311
313
318
315
311
314
319
315
312
315
318
315
314
316
319
316
315
319
322
320
319
323
326
322
323
327
329
328
331
333
329
326
314
311
310
309
313
317
314
312
317
314
311
315
319
324
342
373
398
386
355
330
304
266
266
303
321
318
318
322
324
319
319
324
324
321
320
325
326
323
324
329
328
325
327
332
330
328
331
336
335
334
338
343
341
340
345
351
350
350
355
360
359
360
366
371
368
367
371
371
363
357
353
334
326
323
317
310
305
306
303
299
299
302
300
296
298
303
300
296
300
305
303
300
302
305
302
300
305
308
305
302
306
308
304
303
306
308
304
304
307
309
305
304
309
310
306
306
309
309
306
307
311
310
307
309
313
311
307
310
313
311
308
311
313
311
308
316
313
312
314
316
312
312
315
317
313
312
317
318
314
313
317
317
313
313
318
319
315
315
320
319
315
316
320
319
316
320
325
323
320
324
329
327
325
330
337
336
332
331
328
319
315
318
320
317
316
320
321
316
316
320
321
316
321
339
361
391
411
399
371
297
276
297
316
323
328
325
320
321
326
324
321
324
327
325
323
327
330
327
325
329
334
331
330
335
338
334
334
339
342
339
340
345
348
347
349
355
358
357
360
366
367
366
370
375
373
369
370
372
366
357
350
346
336
327
322
321
315
308
310
311
306
304
306
304
303
308
310
306
305
310
311
308
308
312
313
309
310
315
315
312
312
317
315
312
314
317
315
312
314
318
316
312
314
318
315
312
315
318
315
314
316
319
316
314
317
320
316
315
320
319
315
315
319
320
315
315
320
320
316
318
322
321
317
318
322
320
316
322
321
318
321
324
320
318
321
324
321
318
323
326
322
320
323
325
321
321
325
326
321
322
326
326
322
322
327
327
323
325
333
332
327
329
335
333
332
335
340
342
338
336
334
325
320
322
325
321
319
323
325
321
320
324
325
320
322
336
356
384
415
415
387
313
281
293
315
324
330
329
324
326
330
330
326
327
332
331
327
329
333
332
330
332
336
334
332
336
339
337
335
340
344
342
341
347
350
348
350
356
359
357
360
367
370
368
369
376
377
373
373
376
372
362
355
351
341
331
326
324
318
309
309
312
308
305
308
306
304
307
311
307
304
308
311
306
306
318
313
301
301
308
309
307
307
313
312
308
309
314
314
309
310
314
313
310
311
316
312
308
311
315
313
310
313
316
312
312
322
319
306
305
311
315
313
310
315
318
314
312
316
318
315
315
318
317
314
315
319
318
314
319
318
315
316
323
327
316
310
315
316
314
316
320
317
315
317
322
320
318
320
324
323
323
327
331
328
327
331
333
333
336
337
333
325
319
322
328
314
307
315
316
313
316
320
317
313
316
324
337
359
391
408
387
353
325
292
267
286
316
327
330
317
316
321
322
327
329
326
326
331
332
328
329
333
335
332
333
338
338
335
338
342
342
340
342
347
347
347
350
357
356
356
361
368
367
367
371
376
373
370
374
375
369
362
360
353
341
331
329
324
314
309
311
310
304
302
306
306
300
300
304
305
302
303
307
305
303
305
306
303
306
311
307
305
307
311
308
305
308
311
307
305
308
309
306
305
309
310
306
305
310
310
306
305
310
309
306
306
312
310
306
307
311
310
307
308
312
310
307
310
313
311
308
310
314
311
309
312
315
312
310
312
315
310
311
315
316
312
311
318
322
318
322
325
320
320
326
329
329
330
329
323
314
313
315
313
311
313
318
315
312
316
317
314
311
317
330
348
375
405
396
364
334
305
271
278
306
321
324
320
320
324
325
321
321
326
326
324
325
330
330
326
327
333
332
329
332
336
336
333
337
341
339
337
343
348
345
350
355
354
355
364
367
363
365
371
373
371
370
373
372
363
357
353
344
331
325
323
317
309
308
310
307
302
302
306
304
301
302
308
304
300
304
308
306
302
306
309
307
305
309
311
307
305
310
312
307
306
311
312
307
307
312
313
309
309
313
312
309
309
313
309
310
314
313
310
312
316
314
310
313
316
314
311
314
316
313
311
314
318
314
312
315
318
314
313
318
318
315
315
319
319
315
315
319
319
316
316
320
321
316
317
321
320
316
318
322
321
317
319
323
321
319
325
329
325
324
329
333
331
330
335
341
339
333
329
321
318
321
323
320
318
321
322
320
320
324
322
318
326
345
372
404
415
397
364
328
288
284
307
320
326
330
327
323
327
331
328
326
329
333
330
328
331
334
330
330
335
337
333
333
338
340
336
338
344
344
341
344
351
352
350
352
359
361
359
364
371
368
372
376
374
371
371
371
366
357
352
345
334
324
322
319
313
309
310
310
306
305
308
308
304
304
309
309
305
304
309
310
304
305
309
309
305
307
311
310
306
308
312
310
307
311
313
310
308
310
313
310
307
310
313
310
308
311
312
308
308
311
312
310
309
312
310
309
313
313
310
310
314
312
308
310
315
313
309
311
315
314
311
313
316
314
312
315
317
314
312
315
318
314
312
316
318
315
314
317
319
316
316
319
319
315
315
320
320
315
317
322
322
320
323
326
324
323
329
334
331
329
337
341
337
330
327
325
319
318
322
319
317
320
323
319
317
319
323
329
346
380
414
409
381
355
322
279
283
314
326
323
325
329
328
324
326
331
329
327
329
333
332
329
333
338
334
333
336
339
339
338
342
346
343
342
347
350
349
349
354
358
356
357
364
367
365
367
376
377
373
375
379
372
374
379
361
340
336
335
328
320
317
317
313
308
309
313
309
305
308
312
308
306
310
311
309
308
311
314
316
314
307
308
308
309
315
313
309
311
315
314
312
313
316
314
310
312
316
315
311
311
315
315
311
314
321
319
306
305
313
311
309
312
316
312
310
315
312
310
315
317
312
311
316
317
313
313
321
325
310
308
315
316
313
314
319
318
314
316
321
319
318
322
326
324
324
326
332
334
330
325
332
333
328
327
322
316
313
318
320
317
316
319
320
316
315
321
321
316
328
359
377
392
387
368
339
306
273
278
305
323
328
327
324
327
331
329
330
338
332
322
323
331
335
333
332
336
337
335
335
341
343
339
342
346
347
345
347
354
361
353
349
358
363
363
368
373
372
372
375
378
375
371
372
371
362
351
345
339
329
321
319
322
315
301
303
306
304
304
306
306
302
303
308
304
304
310
312
314
304
304
307
307
309
313
312
307
309
312
310
307
310
313
311
308
312
315
311
308
311
314
311
310
317
308
303
306
313
313
310
310
313
315
312
314
320
319
317
319
322
323
321
324
331
330
323
320
318
312
309
317
320
307
304
310
315
313
311
318
313
312
328
357
382
393
377
354
324
290
266
281
307
317
321
323
320
320
325
324
321
322
328
327
323
325
330
329
327
327
332
330
328
331
335
334
333
337
341
338
338
344
349
348
349
353
358
358
359
366
369
366
366
372
372
367
363
363
355
343
334
331
323
308
310
306
301
301
304
301
298
300
304
300
298
301
304
302
300
303
305
302
300
304
307
303
302
307
307
303
303
307
307
302
302
306
305
302
303
307
307
303
303
307
305
302
304
309
307
303
306
309
306
304
308
311
307
305
308
312
311
311
315
315
313
313
315
318
318
325
328
321
316
315
312
307
306
311
312
308
309
312
312
309
310
314
312
314
330
357
387
398
381
357
326
284
270
299
315
317
320
322
319
318
321
322
320
319
324
326
322
321
326
327
325
326
330
331
328
329
334
334
332
335
341
341
337
340
348
348
347
357
358
358
363
369
367
365
369
373
368
364
363
358
345
335
332
328
318
313
313
312
306
304
308
309
304
303
310
308
304
304
308
307
304
306
311
309
307
309
312
310
307
309
312
310
308
310
314
310
308
314
316
313
310
314
315
312
312
316
317
312
311
316
316
313
317
317
314
314
319
318
315
316
320
318
315
317
321
319
315
319
322
320
317
321
325
321
319
322
325
322
320
323
326
321
319
324
329
326
325
329
332
330
331
335
338
337
339
341
337
327
323
325
323
320
321
326
324
320
322
325
322
319
321
329
339
360
397
403
372
346
310
281
298
322
330
326
325
329
329
325
325
329
331
326
327
333
332
328
330
334
334
332
334
339
338
334
338
342
341
340
343
348
349
347
351
356
356
356
362
366
365
366
372
375
373
372
375
374
368
363
360
351
338
331
327
322
314
310
312
309
304
307
306
303
304
307
306
301
304
309
307
304
306
309
306
304
307
310
306
305
309
311
308
306
310
313
308
308
312
313
309
308
313
313
308
310
315
314
310
311
316
315
311
312
317
315
312
314
318
316
313
315
317
315
313
317
320
316
314
318
321
316
314
319
321
316
320
322
318
317
322
322
318
317
322
322
319
318
323
323
319
321
324
324
322
323
326
324
322
323
328
326
323
325
328
326
323
327
331
330
328
331
334
332
331
336
339
336
338
344
342
335
329
328
326
322
321
325
323
321
323
328
326
322
322
325
327
334
359
422
408
370
340
303
274
298
323
325
325
329
330
326
326
331
332
329
328
333
334
330
331
335
335
331
334
338
338
336
337
341
343
340
342
347
347
345
349
355
355
358
365
359
355
359
367
374
371
370
374
376
371
369
370
367
355
344
340
334
325
318
319
316
309
310
310
305
305
312
315
301
299
306
306
304
307
310
309
305
308
312
309
305
309
314
311
308
311
313
310
308
312
315
311
308
312
313
309
311
320
311
302
305
312
315
308
309
314
313
308
309
314
313
310
312
316
314
311
312
315
313
311
314
316
314
311
314
317
316
320
322
320
321
324
327
323
324
330
334
328
323
320
317
311
311
317
316
310
312
317
315
311
313
317
316
312
321
345
370
390
384
362
333
304
273
273
300
316
321
323
320
319
324
326
323
321
325
327
324
324
329
329
326
327
332
331
327
328
334
334
332
334
338
337
341
346
346
345
350
355
355
356
361
367
366
364
368
371
368
364
364
360
349
340
334
327
317
310
309
307
301
299
302
301
297
297
300
299
296
296
301
301
297
299
303
302
299
302
306
305
300
303
306
304
301
304
306
303
301
306
307
304
302
305
309
305
307
307
304
304
309
309
306
306
311
309
304
305
310
310
306
307
313
311
306
309
313
312
310
312
316
313
310
314
317
313
310
315
317
313
312
315
317
314
312
318
320
318
318
322
324
321
321
326
327
327
331
334
330
320
317
319
314
311
314
318
317
313
316
319
314
316
320
325
339
368
403
403
375
351
322
278
276
307
321
320
319
322
323
320
320
324
325
321
322
328
327
323
325
329
330
327
328
333
333
331
334
339
337
334
338
343
341
340
345
351
351
351
357
363
361
363
368
372
369
369
374
373
367
363
359
352
340
333
322
314
311
312
310
303
302
306
304
301
303
306
303
302
305
309
306
303
306
309
307
304
308
311
307
305
308
310
309
307
311
312
308
309
313
313
309
308
314
314
309
309
313
314
309
310
315
313
309
311
315
314
310
312
315
313
311
314
317
313
311
315
317
315
317
319
316
315
318
320
316
315
320
321
317
317
321
322
317
318
322
322
318
319
324
323
319
321
326
323
319
323
326
323
320
322
325
323
320
325
331
328
324
329
334
330
329
334
337
338
339
340
337
326
321
324
323
319
320
324
324
320
320
323
322
319
320
333
371
408
418
391
359
327
291
286
308
324
329
325
322
326
329
325
323
327
329
326
326
330
332
328
329
333
334
331
332
336
336
333
335
340
341
339
341
347
348
345
349
355
356
356
360
367
368
368
373
376
374
372
375
376
370
363
361
355
343
337
338
