09:46:15.214 -> 365
09:46:15.214 -> 377
09:46:15.214 -> 384
09:46:15.214 -> 374
09:46:15.214 -> 373
09:46:15.214 -> 381
09:46:15.214 -> 385
09:46:15.214 -> 386
09:46:15.261 -> 387
09:46:15.261 -> 391
09:46:15.261 -> 387
09:46:15.261 -> 372
09:46:15.261 -> 363
09:46:15.261 -> 361
09:46:15.261 -> 359
09:46:15.261 -> 343
09:46:15.261 -> 334
09:46:15.261 -> 330
09:46:15.308 -> 326
09:46:15.308 -> 317
09:46:15.308 -> 318
09:46:15.308 -> 315
09:46:15.308 -> 306
09:46:15.308 -> 305
09:46:15.308 -> 312
09:46:15.308 -> 313
09:46:15.356 -> 307
09:46:15.356 -> 303
09:46:15.356 -> 307
09:46:15.356 -> 309
09:46:15.356 -> 306
09:46:15.356 -> 309
09:46:15.356 -> 317
09:46:15.356 -> 317
09:46:15.356 -> 305
09:46:15.356 -> 302
09:46:15.409 -> 306
09:46:15.409 -> 308
09:46:15.409 -> 314
09:46:15.409 -> 311
09:46:15.409 -> 312
09:46:15.409 -> 314
09:46:15.409 -> 314
09:46:15.409 -> 308
09:46:15.409 -> 314
09:46:15.409 -> 320
09:46:15.455 -> 315
09:46:15.455 -> 315
09:46:15.455 -> 321
09:46:15.455 -> 314
09:46:15.455 -> 307
09:46:15.455 -> 313
09:46:15.455 -> 320
09:46:15.455 -> 315
09:46:15.455 -> 310
09:46:15.503 -> 319
09:46:15.503 -> 326
09:46:15.503 -> 320
09:46:15.503 -> 317
09:46:15.503 -> 321
09:46:15.503 -> 317
09:46:15.503 -> 313
09:46:15.503 -> 316
09:46:15.503 -> 321
09:46:15.537 -> 318
09:46:15.537 -> 315
09:46:15.537 -> 325
09:46:15.537 -> 328
09:46:15.537 -> 318
09:46:15.537 -> 316
09:46:15.584 -> 310
09:46:15.584 -> 322
09:46:15.584 -> 328
09:46:15.584 -> 323
09:46:15.584 -> 324
09:46:15.584 -> 323
09:46:15.584 -> 321
09:46:15.584 -> 317
09:46:15.584 -> 315
09:46:15.584 -> 322
09:46:15.631 -> 322
09:46:15.631 -> 320
09:46:15.631 -> 326
09:46:15.631 -> 327
09:46:15.631 -> 317
09:46:15.631 -> 315
09:46:15.631 -> 328
09:46:15.631 -> 334
09:46:15.677 -> 326
09:46:15.677 -> 319
09:46:15.677 -> 324
09:46:15.677 -> 328
09:46:15.677 -> 336
09:46:15.677 -> 338
09:46:15.677 -> 335
09:46:15.677 -> 332
09:46:15.677 -> 328
09:46:15.724 -> 330
09:46:15.724 -> 339
09:46:15.724 -> 344
09:46:15.724 -> 339
09:46:15.724 -> 333
09:46:15.724 -> 333
09:46:15.724 -> 326
09:46:15.724 -> 316
09:46:15.724 -> 317
09:46:15.724 -> 322
09:46:15.776 -> 322
09:46:15.776 -> 320
09:46:15.776 -> 323
09:46:15.776 -> 330
09:46:15.776 -> 322
09:46:15.776 -> 322
09:46:15.776 -> 319
09:46:15.776 -> 319
09:46:15.776 -> 318
09:46:15.820 -> 320
09:46:15.820 -> 319
09:46:15.820 -> 325
09:46:15.820 -> 351
09:46:15.820 -> 392
09:46:15.820 -> 416
09:46:15.820 -> 403
09:46:15.820 -> 374
09:46:15.820 -> 348
09:46:15.866 -> 315
09:46:15.866 -> 281
09:46:15.866 -> 282
09:46:15.866 -> 320
09:46:15.866 -> 328
09:46:15.866 -> 318
09:46:15.866 -> 320
09:46:15.866 -> 329
09:46:15.866 -> 329
09:46:15.912 -> 327
09:46:15.912 -> 323
09:46:15.912 -> 333
09:46:15.912 -> 333
09:46:15.912 -> 326
09:46:15.912 -> 325
09:46:15.912 -> 333
09:46:15.912 -> 334
09:46:15.912 -> 328
09:46:15.960 -> 327
09:46:15.960 -> 341
09:46:15.960 -> 337
09:46:15.960 -> 330
09:46:15.960 -> 331
09:46:15.960 -> 340
09:46:15.960 -> 345
09:46:15.960 -> 348
09:46:16.009 -> 351
09:46:16.009 -> 352
09:46:16.009 -> 343
09:46:16.009 -> 336
09:46:16.009 -> 346
09:46:16.009 -> 352
09:46:16.009 -> 350
09:46:16.009 -> 351
09:46:16.009 -> 353
09:46:16.009 -> 355
09:46:16.009 -> 344
09:46:16.054 -> 347
09:46:16.054 -> 366
09:46:16.054 -> 377
09:46:16.054 -> 370
09:46:16.054 -> 354
09:46:16.054 -> 374
09:46:16.054 -> 395
09:46:16.054 -> 370
09:46:16.099 -> 348
09:46:16.099 -> 354
09:46:16.099 -> 361
09:46:16.099 -> 347
09:46:16.099 -> 328
09:46:16.099 -> 319
09:46:16.099 -> 302
09:46:16.099 -> 287
09:46:16.099 -> 265
09:46:16.139 -> 235
09:46:16.139 -> 217
09:46:16.139 -> 229
09:46:16.139 -> 229
09:46:16.139 -> 230
09:46:16.139 -> 231
09:46:16.139 -> 198
09:46:16.179 -> 175
09:46:16.179 -> 185
09:46:16.179 -> 188
09:46:16.179 -> 181
09:46:16.179 -> 201
09:46:16.179 -> 227
09:46:16.179 -> 233
09:46:16.179 -> 215
09:46:16.219 -> 205
09:46:16.219 -> 216
09:46:16.219 -> 225
09:46:16.219 -> 232
09:46:16.219 -> 232
09:46:16.219 -> 206
09:46:16.219 -> 183
09:46:16.219 -> 206
09:46:16.259 -> 225
09:46:16.259 -> 220
09:46:16.259 -> 212
09:46:16.259 -> 215
09:46:16.259 -> 227
09:46:16.259 -> 223
09:46:16.259 -> 196
09:46:16.259 -> 190
09:46:16.299 -> 183
09:46:16.299 -> 161
09:46:16.299 -> 145
09:46:16.299 -> 149
09:46:16.299 -> 172
09:46:16.299 -> 170
09:46:16.299 -> 157
09:46:16.339 -> 143
09:46:16.339 -> 128
09:46:16.339 -> 98
09:46:16.339 -> 87
09:46:16.339 -> 103
09:46:16.339 -> 92
09:46:16.339 -> 0
09:46:16.339 -> 0
09:46:16.339 -> 0
09:46:16.379 -> 0
09:46:16.379 -> 0
09:46:16.379 -> 0
09:46:16.379 -> 0
09:46:16.379 -> 0
09:46:16.379 -> 0
09:46:16.379 -> 0
09:46:16.379 -> 0
09:46:16.379 -> 0
09:46:16.379 -> 0
09:46:16.379 -> 0
09:46:16.379 -> 0
09:46:16.379 -> 0
09:46:16.379 -> 0
09:46:16.419 -> 0
09:46:16.419 -> 0
09:46:16.419 -> 0
09:46:16.419 -> 0
09:46:16.419 -> 0
09:46:16.419 -> 0
09:46:16.419 -> 0
09:46:16.419 -> 0
09:46:16.419 -> 0
09:46:16.419 -> 0
09:46:16.419 -> 0
09:46:16.419 -> 0
09:46:16.419 -> 0
09:46:16.459 -> 0
09:46:16.459 -> 0
09:46:16.459 -> 0
09:46:16.459 -> 0
09:46:16.459 -> 0
09:46:16.459 -> 0
09:46:16.459 -> 0
09:46:16.459 -> 0
09:46:16.509 -> 0
09:46:16.509 -> 0
09:46:16.509 -> 0
09:46:16.509 -> 0
09:46:16.509 -> 0
09:46:16.509 -> 0
09:46:16.509 -> 0
09:46:16.509 -> 0
09:46:16.509 -> 0
09:46:16.509 -> 0
09:46:16.549 -> 0
09:46:16.549 -> 0
09:46:16.549 -> 0
09:46:16.549 -> 0
09:46:16.549 -> 73
09:46:16.549 -> 296
09:46:16.549 -> 430
09:46:16.589 -> 504
09:46:16.589 -> 571
09:46:16.589 -> 628
09:46:16.589 -> 640
09:46:16.589 -> 642
09:46:16.589 -> 642
09:46:16.589 -> 643
09:46:16.589 -> 644
09:46:16.629 -> 644
09:46:16.629 -> 644
09:46:16.629 -> 643
09:46:16.629 -> 644
09:46:16.629 -> 643
09:46:16.629 -> 644
09:46:16.629 -> 644
09:46:16.629 -> 644
09:46:16.669 -> 643
09:46:16.669 -> 644
09:46:16.669 -> 644
09:46:16.669 -> 644
09:46:16.669 -> 644
09:46:16.669 -> 644
09:46:16.669 -> 644
09:46:16.669 -> 644
09:46:16.709 -> 644
09:46:16.709 -> 643
09:46:16.709 -> 644
09:46:16.709 -> 644
09:46:16.709 -> 644
09:46:16.709 -> 643
09:46:16.709 -> 644
09:46:16.749 -> 643
09:46:16.749 -> 643
09:46:16.749 -> 644
09:46:16.749 -> 644
09:46:16.749 -> 644
09:46:16.749 -> 644
09:46:16.749 -> 644
09:46:16.749 -> 645
09:46:16.789 -> 644
09:46:16.789 -> 644
09:46:16.789 -> 644
09:46:16.789 -> 644
09:46:16.789 -> 644
09:46:16.789 -> 644
09:46:16.789 -> 644
09:46:16.789 -> 645
09:46:16.824 -> 644
09:46:16.824 -> 644
09:46:16.824 -> 644
09:46:16.824 -> 644
09:46:16.824 -> 644
09:46:16.824 -> 644
09:46:16.824 -> 644
09:46:16.859 -> 643
09:46:16.859 -> 644
09:46:16.859 -> 643
09:46:16.859 -> 643
09:46:16.859 -> 642
09:46:16.859 -> 641
09:46:16.894 -> 639
09:46:16.894 -> 626
09:46:16.894 -> 574
09:46:16.894 -> 534
09:46:16.894 -> 513
09:46:16.894 -> 493
09:46:16.894 -> 474
09:46:16.949 -> 467
09:46:16.949 -> 469
09:46:16.949 -> 469
09:46:16.949 -> 467
09:46:16.949 -> 469
09:46:16.949 -> 472
09:46:16.949 -> 464
09:46:16.949 -> 450
09:46:16.949 -> 439
09:46:16.949 -> 431
09:46:16.989 -> 416
09:46:16.989 -> 402
09:46:16.989 -> 397
09:46:16.989 -> 392
09:46:16.989 -> 380
09:46:16.989 -> 374
09:46:16.989 -> 377
09:46:16.989 -> 379
09:46:17.030 -> 375
09:46:17.030 -> 375
09:46:17.030 -> 380
09:46:17.030 -> 384
09:46:17.030 -> 382
09:46:17.030 -> 384
09:46:17.030 -> 390
09:46:17.030 -> 390
09:46:17.069 -> 382
09:46:17.069 -> 379
09:46:17.069 -> 383
09:46:17.069 -> 387
09:46:17.069 -> 386
09:46:17.069 -> 387
09:46:17.069 -> 390
09:46:17.109 -> 387
09:46:17.109 -> 380
09:46:17.109 -> 378
09:46:17.109 -> 379
09:46:17.109 -> 372
09:46:17.109 -> 363
09:46:17.109 -> 363
09:46:17.109 -> 364
09:46:17.149 -> 358
09:46:17.149 -> 351
09:46:17.149 -> 349
09:46:17.149 -> 350
09:46:17.149 -> 343
09:46:17.149 -> 336
09:46:17.149 -> 337
09:46:17.149 -> 340
09:46:17.189 -> 335
09:46:17.189 -> 331
09:46:17.189 -> 334
09:46:17.189 -> 337
09:46:17.189 -> 333
09:46:17.189 -> 329
09:46:17.189 -> 331
09:46:17.189 -> 334
09:46:17.229 -> 329
09:46:17.229 -> 328
09:46:17.229 -> 333
09:46:17.229 -> 334
09:46:17.229 -> 328
09:46:17.229 -> 326
09:46:17.229 -> 333
09:46:17.269 -> 337
09:46:17.269 -> 333
09:46:17.269 -> 332
09:46:17.269 -> 335
09:46:17.269 -> 338
09:46:17.269 -> 333
09:46:17.269 -> 332
09:46:17.269 -> 336
09:46:17.309 -> 335
09:46:17.309 -> 329
09:46:17.309 -> 328
09:46:17.309 -> 330
09:46:17.309 -> 326
09:46:17.309 -> 318
09:46:17.309 -> 316
09:46:17.309 -> 318
09:46:17.349 -> 312
09:46:17.349 -> 304
09:46:17.349 -> 303
09:46:17.349 -> 304
09:46:17.349 -> 296
09:46:17.349 -> 286
09:46:17.349 -> 285
09:46:17.349 -> 286
09:46:17.389 -> 284
09:46:17.389 -> 279
09:46:17.389 -> 279
09:46:17.389 -> 282
09:46:17.389 -> 279
09:46:17.389 -> 276
09:46:17.389 -> 279
09:46:17.429 -> 282
09:46:17.429 -> 282
09:46:17.429 -> 284
09:46:17.429 -> 288
09:46:17.429 -> 288
09:46:17.429 -> 281
09:46:17.429 -> 275
09:46:17.429 -> 274
09:46:17.469 -> 273
09:46:17.469 -> 268
09:46:17.469 -> 268
09:46:17.469 -> 274
09:46:17.469 -> 276
09:46:17.469 -> 271
09:46:17.469 -> 271
09:46:17.509 -> 273
09:46:17.509 -> 272
09:46:17.509 -> 267
09:46:17.509 -> 267
09:46:17.509 -> 270
09:46:17.509 -> 267
09:46:17.509 -> 270
09:46:17.509 -> 288
09:46:17.549 -> 320
09:46:17.549 -> 348
09:46:17.549 -> 357
09:46:17.549 -> 344
09:46:17.549 -> 321
09:46:17.549 -> 288
09:46:17.549 -> 246
09:46:17.589 -> 226
09:46:17.589 -> 249
09:46:17.589 -> 271
09:46:17.589 -> 273
09:46:17.589 -> 274
09:46:17.589 -> 281
09:46:17.589 -> 281
09:46:17.589 -> 279
09:46:17.629 -> 284
09:46:17.629 -> 288
09:46:17.629 -> 286
09:46:17.629 -> 284
09:46:17.629 -> 288
09:46:17.629 -> 290
09:46:17.629 -> 287
09:46:17.629 -> 290
09:46:17.669 -> 298
09:46:17.669 -> 301
09:46:17.669 -> 297
09:46:17.669 -> 296
09:46:17.669 -> 301
09:46:17.669 -> 304
09:46:17.669 -> 301
09:46:17.669 -> 301
09:46:17.709 -> 304
09:46:17.709 -> 306
09:46:17.709 -> 302
09:46:17.709 -> 304
09:46:17.709 -> 310
09:46:17.709 -> 311
09:46:17.709 -> 307
09:46:17.709 -> 310
09:46:17.749 -> 321
09:46:17.749 -> 323
09:46:17.749 -> 321
09:46:17.749 -> 325
09:46:17.749 -> 332
09:46:17.749 -> 334
09:46:17.749 -> 335
09:46:17.789 -> 340
09:46:17.789 -> 347
09:46:17.789 -> 346
09:46:17.789 -> 344
09:46:17.789 -> 348
09:46:17.789 -> 351
09:46:17.789 -> 345
09:46:17.789 -> 340
09:46:17.829 -> 336
09:46:17.829 -> 330
09:46:17.829 -> 316
09:46:17.829 -> 306
09:46:17.829 -> 303
09:46:17.829 -> 300
09:46:17.829 -> 291
09:46:17.829 -> 285
09:46:17.869 -> 288
09:46:17.869 -> 288
09:46:17.869 -> 282
09:46:17.869 -> 279
09:46:17.869 -> 284
09:46:17.869 -> 284
09:46:17.869 -> 279
09:46:17.869 -> 279
09:46:17.919 -> 284
09:46:17.919 -> 285
09:46:17.919 -> 280
09:46:17.919 -> 281
09:46:17.919 -> 285
09:46:17.919 -> 286
09:46:17.919 -> 280
09:46:17.919 -> 281
09:46:17.919 -> 287
09:46:17.959 -> 287
09:46:17.959 -> 283
09:46:17.959 -> 286
09:46:17.959 -> 291
09:46:17.959 -> 289
09:46:17.959 -> 286
09:46:17.959 -> 288
09:46:17.959 -> 293
09:46:18.009 -> 293
09:46:18.009 -> 291
09:46:18.009 -> 294
09:46:18.009 -> 298
09:46:18.009 -> 295
09:46:18.009 -> 292
09:46:18.009 -> 296
09:46:18.009 -> 298
09:46:18.009 -> 296
09:46:18.049 -> 294
09:46:18.049 -> 298
09:46:18.049 -> 303
09:46:18.049 -> 298
09:46:18.049 -> 295
09:46:18.049 -> 299
09:46:18.049 -> 302
09:46:18.049 -> 297
09:46:18.089 -> 295
09:46:18.089 -> 302
09:46:18.089 -> 305
09:46:18.089 -> 300
09:46:18.089 -> 299
09:46:18.089 -> 305
09:46:18.089 -> 309
09:46:18.129 -> 303
09:46:18.129 -> 303
09:46:18.129 -> 309
09:46:18.129 -> 312
09:46:18.129 -> 307
09:46:18.129 -> 307
09:46:18.129 -> 313
09:46:18.129 -> 315
09:46:18.169 -> 316
09:46:18.169 -> 319
09:46:18.169 -> 322
09:46:18.169 -> 316
09:46:18.169 -> 308
09:46:18.169 -> 304
09:46:18.169 -> 306
09:46:18.169 -> 302
09:46:18.206 -> 298
09:46:18.206 -> 301
09:46:18.206 -> 306
09:46:18.206 -> 304
09:46:18.206 -> 300
09:46:18.206 -> 303
09:46:18.206 -> 306
09:46:18.253 -> 302
09:46:18.253 -> 299
09:46:18.253 -> 302
09:46:18.253 -> 303
09:46:18.253 -> 297
09:46:18.253 -> 299
09:46:18.253 -> 318
09:46:18.253 -> 347
09:46:18.253 -> 372
09:46:18.289 -> 389
09:46:18.289 -> 384
09:46:18.289 -> 361
09:46:18.289 -> 326
09:46:18.289 -> 285
09:46:18.289 -> 260
09:46:18.289 -> 277
09:46:18.329 -> 300
09:46:18.329 -> 306
09:46:18.329 -> 311
09:46:18.329 -> 312
09:46:18.329 -> 308
09:46:18.329 -> 307
09:46:18.329 -> 312
09:46:18.329 -> 313
09:46:18.379 -> 310
09:46:18.379 -> 312
09:46:18.379 -> 316
09:46:18.379 -> 315
09:46:18.379 -> 313
09:46:18.379 -> 315
09:46:18.379 -> 320
09:46:18.379 -> 320
09:46:18.379 -> 317
09:46:18.419 -> 320
09:46:18.419 -> 324
09:46:18.419 -> 321
09:46:18.419 -> 318
09:46:18.419 -> 322
09:46:18.419 -> 327
09:46:18.419 -> 324
09:46:18.419 -> 322
09:46:18.459 -> 328
09:46:18.459 -> 336
09:46:18.459 -> 336
09:46:18.459 -> 336
09:46:18.459 -> 342
09:46:18.459 -> 345
09:46:18.459 -> 343
09:46:18.459 -> 345
09:46:18.499 -> 352
09:46:18.499 -> 357
09:46:18.499 -> 355
09:46:18.499 -> 356
09:46:18.499 -> 363
09:46:18.499 -> 367
09:46:18.499 -> 365
09:46:18.539 -> 366
09:46:18.539 -> 372
09:46:18.539 -> 372
09:46:18.539 -> 363
09:46:18.539 -> 356
09:46:18.539 -> 351
09:46:18.539 -> 341
09:46:18.539 -> 329
09:46:18.579 -> 321
09:46:18.579 -> 320
09:46:18.579 -> 313
09:46:18.579 -> 303
09:46:18.579 -> 300
09:46:18.579 -> 304
09:46:18.579 -> 302
09:46:18.579 -> 297
09:46:18.619 -> 298
09:46:18.619 -> 301
09:46:18.619 -> 297
09:46:18.619 -> 293
09:46:18.619 -> 295
09:46:18.619 -> 298
09:46:18.619 -> 295
09:46:18.619 -> 293
09:46:18.659 -> 297
09:46:18.659 -> 300
09:46:18.659 -> 296
09:46:18.659 -> 294
09:46:18.659 -> 297
09:46:18.659 -> 301
09:46:18.659 -> 297
09:46:18.699 -> 295
09:46:18.699 -> 299
09:46:18.699 -> 303
09:46:18.699 -> 297
09:46:18.699 -> 296
09:46:18.699 -> 301
09:46:18.699 -> 304
09:46:18.699 -> 300
09:46:18.739 -> 300
09:46:18.739 -> 305
09:46:18.739 -> 304
09:46:18.739 -> 299
09:46:18.739 -> 299
09:46:18.739 -> 304
09:46:18.739 -> 305
09:46:18.779 -> 301
09:46:18.779 -> 300
09:46:18.779 -> 306
09:46:18.779 -> 306
09:46:18.779 -> 302
09:46:18.779 -> 303
09:46:18.779 -> 307
09:46:18.779 -> 304
09:46:18.819 -> 300
09:46:18.819 -> 303
09:46:18.819 -> 310
09:46:18.819 -> 308
09:46:18.819 -> 303
09:46:18.819 -> 305
09:46:18.819 -> 310
09:46:18.819 -> 308
09:46:18.859 -> 304
09:46:18.859 -> 307
09:46:18.859 -> 309
09:46:18.859 -> 305
09:46:18.859 -> 302
09:46:18.859 -> 304
09:46:18.859 -> 307
09:46:18.899 -> 303
09:46:18.899 -> 301
09:46:18.899 -> 305
09:46:18.899 -> 309
09:46:18.899 -> 305
09:46:18.899 -> 304
09:46:18.899 -> 309
09:46:18.899 -> 312
09:46:18.939 -> 306
09:46:18.939 -> 305
09:46:18.939 -> 310
09:46:18.939 -> 312
09:46:18.939 -> 306
09:46:18.939 -> 305
09:46:18.939 -> 309
09:46:18.939 -> 310
09:46:18.979 -> 306
09:46:18.979 -> 306
09:46:18.979 -> 313
09:46:18.979 -> 312
09:46:18.979 -> 306
09:46:18.979 -> 307
09:46:18.979 -> 311
09:46:18.979 -> 311
09:46:19.019 -> 308
09:46:19.019 -> 309
09:46:19.019 -> 314
09:46:19.019 -> 312
09:46:19.019 -> 307
09:46:19.019 -> 309
09:46:19.019 -> 314
09:46:19.059 -> 311
09:46:19.059 -> 308
09:46:19.059 -> 313
09:46:19.059 -> 316
09:46:19.059 -> 312
09:46:19.059 -> 308
09:46:19.059 -> 311
09:46:19.059 -> 317
09:46:19.099 -> 314
09:46:19.099 -> 310
09:46:19.099 -> 312
09:46:19.099 -> 316
09:46:19.099 -> 312
09:46:19.099 -> 311
09:46:19.099 -> 316
09:46:19.099 -> 318
09:46:19.139 -> 312
09:46:19.139 -> 312
09:46:19.139 -> 315
09:46:19.139 -> 316
09:46:19.139 -> 310
09:46:19.139 -> 310
09:46:19.139 -> 315
09:46:19.139 -> 316
09:46:19.179 -> 311
09:46:19.179 -> 313
09:46:19.179 -> 318
09:46:19.179 -> 320
09:46:19.179 -> 315
09:46:19.179 -> 317
09:46:19.179 -> 323
09:46:19.219 -> 323
09:46:19.219 -> 320
09:46:19.219 -> 321
09:46:19.219 -> 328
09:46:19.219 -> 329
09:46:19.219 -> 327
09:46:19.219 -> 328
09:46:19.219 -> 329
09:46:19.259 -> 322
09:46:19.259 -> 313
09:46:19.259 -> 310
09:46:19.259 -> 312
09:46:19.259 -> 308
09:46:19.259 -> 304
09:46:19.259 -> 309
09:46:19.299 -> 312
09:46:19.299 -> 307
09:46:19.299 -> 304
09:46:19.299 -> 307
09:46:19.299 -> 310
09:46:19.299 -> 304
09:46:19.299 -> 299
09:46:19.299 -> 304
09:46:19.339 -> 317
09:46:19.339 -> 335
09:46:19.339 -> 363
09:46:19.339 -> 401
09:46:19.339 -> 410
09:46:19.339 -> 384
09:46:19.339 -> 352
09:46:19.339 -> 323
09:46:19.379 -> 283
09:46:19.379 -> 275
09:46:19.379 -> 298
09:46:19.379 -> 315
09:46:19.379 -> 314
09:46:19.379 -> 312
09:46:19.379 -> 313
09:46:19.419 -> 316
09:46:19.419 -> 314
09:46:19.419 -> 311
09:46:19.419 -> 311
09:46:19.419 -> 318
09:46:19.419 -> 318
09:46:19.419 -> 313
09:46:19.419 -> 316
09:46:19.459 -> 321
09:46:19.459 -> 319
09:46:19.459 -> 316
09:46:19.459 -> 319
09:46:19.459 -> 324
09:46:19.459 -> 322
09:46:19.459 -> 318
09:46:19.459 -> 321
09:46:19.499 -> 327
09:46:19.499 -> 325
09:46:19.499 -> 324
09:46:19.499 -> 329
09:46:19.499 -> 335
09:46:19.499 -> 331
09:46:19.499 -> 332
09:46:19.499 -> 338
09:46:19.539 -> 343
09:46:19.539 -> 342
09:46:19.539 -> 343
09:46:19.539 -> 350
09:46:19.539 -> 355
09:46:19.539 -> 352
09:46:19.539 -> 355
09:46:19.579 -> 363
09:46:19.579 -> 367
09:46:19.579 -> 366
09:46:19.579 -> 369
09:46:19.579 -> 374
09:46:19.579 -> 377
09:46:19.579 -> 373
09:46:19.579 -> 373
09:46:19.619 -> 374
09:46:19.619 -> 370
09:46:19.619 -> 360
09:46:19.619 -> 352
09:46:19.619 -> 349
09:46:19.619 -> 340
09:46:19.619 -> 327
09:46:19.619 -> 321
09:46:19.659 -> 320
09:46:19.659 -> 313
09:46:19.659 -> 306
09:46:19.659 -> 305
09:46:19.659 -> 307
09:46:19.659 -> 304
09:46:19.659 -> 299
09:46:19.659 -> 299
09:46:19.699 -> 303
09:46:19.699 -> 299
09:46:19.699 -> 297
09:46:19.699 -> 301
09:46:19.699 -> 305
09:46:19.699 -> 301
09:46:19.699 -> 299
09:46:19.739 -> 303
09:46:19.739 -> 306
09:46:19.739 -> 302
09:46:19.739 -> 300
09:46:19.739 -> 304
09:46:19.739 -> 307
09:46:19.739 -> 303
09:46:19.739 -> 302
09:46:19.779 -> 306
09:46:19.779 -> 308
09:46:19.779 -> 305
09:46:19.779 -> 304
09:46:19.779 -> 309
09:46:19.779 -> 308
09:46:19.779 -> 304
09:46:19.819 -> 304
09:46:19.819 -> 311
09:46:19.819 -> 311
09:46:19.819 -> 306
09:46:19.819 -> 308
09:46:19.819 -> 314
09:46:19.819 -> 312
09:46:19.819 -> 307
09:46:19.859 -> 310
09:46:19.859 -> 315
09:46:19.859 -> 315
09:46:19.859 -> 311
09:46:19.859 -> 313
09:46:19.859 -> 317
09:46:19.859 -> 315
09:46:19.859 -> 311
09:46:19.899 -> 314
09:46:19.899 -> 319
09:46:19.899 -> 314
09:46:19.899 -> 310
09:46:19.899 -> 314
09:46:19.899 -> 318
09:46:19.899 -> 314
09:46:19.939 -> 311
09:46:19.939 -> 315
09:46:19.939 -> 319
09:46:19.939 -> 314
09:46:19.939 -> 312
09:46:19.939 -> 317
09:46:19.939 -> 319
09:46:19.939 -> 314
09:46:19.979 -> 314
09:46:19.979 -> 319
09:46:19.979 -> 320
09:46:19.979 -> 314
09:46:19.979 -> 312
09:46:19.979 -> 318
09:46:19.979 -> 319
09:46:19.979 -> 315
09:46:20.019 -> 315
09:46:20.019 -> 321
09:46:20.019 -> 321
09:46:20.019 -> 318
09:46:20.019 -> 318
09:46:20.019 -> 322
09:46:20.019 -> 322
09:46:20.019 -> 318
09:46:20.059 -> 319
09:46:20.059 -> 323
09:46:20.059 -> 321
09:46:20.059 -> 317
09:46:20.059 -> 320
09:46:20.059 -> 325
09:46:20.059 -> 323
09:46:20.099 -> 320
09:46:20.099 -> 323
09:46:20.099 -> 326
09:46:20.099 -> 323
09:46:20.099 -> 320
09:46:20.099 -> 323
09:46:20.099 -> 326
09:46:20.099 -> 324
09:46:20.139 -> 320
09:46:20.139 -> 322
09:46:20.139 -> 326
09:46:20.139 -> 323
09:46:20.139 -> 321
09:46:20.139 -> 326
09:46:20.139 -> 329
09:46:20.139 -> 324
09:46:20.179 -> 323
09:46:20.179 -> 328
09:46:20.179 -> 332
09:46:20.179 -> 328
09:46:20.179 -> 328
09:46:20.179 -> 335
09:46:20.179 -> 338
09:46:20.179 -> 332
09:46:20.219 -> 333
09:46:20.219 -> 341
09:46:20.219 -> 344
09:46:20.219 -> 341
09:46:20.219 -> 341
09:46:20.219 -> 346
09:46:20.219 -> 344
09:46:20.259 -> 335
09:46:20.259 -> 332
09:46:20.259 -> 332
09:46:20.259 -> 325
09:46:20.259 -> 318
09:46:20.259 -> 319
09:46:20.259 -> 325
09:46:20.259 -> 323
09:46:20.299 -> 320
09:46:20.299 -> 323
09:46:20.299 -> 328
09:46:20.299 -> 323
09:46:20.299 -> 315
09:46:20.299 -> 317
09:46:20.299 -> 323
09:46:20.339 -> 328
09:46:20.339 -> 342
09:46:20.339 -> 376
09:46:20.339 -> 417
09:46:20.339 -> 424
09:46:20.339 -> 402
09:46:20.339 -> 372
09:46:20.339 -> 342
09:46:20.379 -> 297
09:46:20.379 -> 284
09:46:20.379 -> 311
09:46:20.379 -> 327
09:46:20.379 -> 326
09:46:20.379 -> 325
09:46:20.379 -> 330
09:46:20.419 -> 330
09:46:20.419 -> 326
09:46:20.419 -> 326
09:46:20.419 -> 328
09:46:20.419 -> 327
09:46:20.419 -> 325
09:46:20.419 -> 327
09:46:20.419 -> 333
09:46:20.459 -> 335
09:46:20.459 -> 331
09:46:20.459 -> 329
09:46:20.459 -> 334
09:46:20.459 -> 334
09:46:20.459 -> 330
09:46:20.459 -> 333
09:46:20.459 -> 338
09:46:20.509 -> 338
09:46:20.509 -> 335
09:46:20.509 -> 337
09:46:20.509 -> 342
09:46:20.509 -> 341
09:46:20.509 -> 339
09:46:20.509 -> 346
09:46:20.509 -> 352
09:46:20.509 -> 351
09:46:20.509 -> 350
09:46:20.549 -> 355
09:46:20.549 -> 362
09:46:20.549 -> 362
09:46:20.549 -> 363
09:46:20.549 -> 368
09:46:20.549 -> 374
09:46:20.549 -> 374
09:46:20.589 -> 375
09:46:20.589 -> 380
09:46:20.589 -> 384
09:46:20.589 -> 381
09:46:20.589 -> 380
09:46:20.589 -> 385
09:46:20.589 -> 384
09:46:20.589 -> 376
09:46:20.629 -> 367
09:46:20.629 -> 364
09:46:20.629 -> 358
09:46:20.629 -> 345
09:46:20.629 -> 336
09:46:20.629 -> 333
09:46:20.629 -> 328
09:46:20.669 -> 318
09:46:20.669 -> 313
09:46:20.669 -> 315
09:46:20.669 -> 313
09:46:20.669 -> 307
09:46:20.669 -> 306
09:46:20.669 -> 310
09:46:20.669 -> 308
09:46:20.709 -> 303
09:46:20.709 -> 303
09:46:20.709 -> 306
09:46:20.709 -> 304
09:46:20.709 -> 299
09:46:20.709 -> 301
09:46:20.709 -> 308
09:46:20.709 -> 305
09:46:20.749 -> 302
09:46:20.749 -> 306
09:46:20.749 -> 311
09:46:20.749 -> 309
09:46:20.749 -> 305
09:46:20.749 -> 306
09:46:20.749 -> 308
09:46:20.749 -> 307
09:46:20.789 -> 306
09:46:20.789 -> 310
09:46:20.789 -> 313
09:46:20.789 -> 309
09:46:20.789 -> 306
09:46:20.789 -> 311
09:46:20.789 -> 312
09:46:20.789 -> 307
09:46:20.829 -> 307
09:46:20.829 -> 312
09:46:20.829 -> 312
09:46:20.829 -> 309
09:46:20.829 -> 308
09:46:20.829 -> 314
09:46:20.829 -> 315
09:46:20.869 -> 311
09:46:20.869 -> 311
09:46:20.869 -> 314
09:46:20.869 -> 313
09:46:20.869 -> 310
09:46:20.869 -> 311
09:46:20.869 -> 316
09:46:20.869 -> 315
09:46:20.909 -> 311
09:46:20.909 -> 311
09:46:20.909 -> 315
09:46:20.909 -> 315
09:46:20.909 -> 311
09:46:20.909 -> 314
09:46:20.909 -> 317
09:46:20.909 -> 314
09:46:20.949 -> 311
09:46:20.949 -> 319
09:46:20.949 -> 316
09:46:20.949 -> 313
09:46:20.949 -> 316
09:46:20.949 -> 320
09:46:20.949 -> 316
09:46:20.949 -> 312
09:46:20.989 -> 317
09:46:20.989 -> 319
09:46:20.989 -> 315
09:46:20.989 -> 312
09:46:20.989 -> 317
09:46:20.989 -> 320
09:46:20.989 -> 315
09:46:21.029 -> 314
09:46:21.029 -> 320
09:46:21.029 -> 321
09:46:21.029 -> 316
09:46:21.029 -> 313
09:46:21.029 -> 318
09:46:21.029 -> 320
09:46:21.029 -> 316
09:46:21.069 -> 316
09:46:21.069 -> 319
09:46:21.069 -> 319
09:46:21.069 -> 314
09:46:21.069 -> 316
09:46:21.069 -> 322
09:46:21.069 -> 321
09:46:21.109 -> 314
09:46:21.109 -> 314
09:46:21.109 -> 321
09:46:21.109 -> 321
09:46:21.109 -> 320
09:46:21.109 -> 325
09:46:21.109 -> 331
09:46:21.109 -> 330
09:46:21.149 -> 330
09:46:21.149 -> 332
09:46:21.149 -> 337
09:46:21.149 -> 337
09:46:21.149 -> 336
09:46:21.149 -> 338
09:46:21.149 -> 338
09:46:21.189 -> 332
09:46:21.189 -> 324
09:46:21.189 -> 321
09:46:21.189 -> 321
09:46:21.189 -> 317
09:46:21.189 -> 313
09:46:21.189 -> 318
09:46:21.189 -> 321
09:46:21.229 -> 317
09:46:21.229 -> 315
09:46:21.229 -> 320
09:46:21.229 -> 321
09:46:21.229 -> 314
09:46:21.229 -> 311
09:46:21.229 -> 320
09:46:21.229 -> 336
09:46:21.269 -> 356
09:46:21.269 -> 382
09:46:21.269 -> 401
09:46:21.269 -> 390
09:46:21.269 -> 332
09:46:21.269 -> 302
09:46:21.269 -> 274
09:46:21.269 -> 283
09:46:21.309 -> 311
09:46:21.309 -> 325
09:46:21.309 -> 322
09:46:21.309 -> 320
09:46:21.309 -> 322
09:46:21.309 -> 327
09:46:21.309 -> 326
09:46:21.309 -> 320
09:46:21.349 -> 323
09:46:21.349 -> 327
09:46:21.349 -> 327
09:46:21.349 -> 323
09:46:21.349 -> 325
09:46:21.349 -> 332
09:46:21.349 -> 330
09:46:21.389 -> 328
09:46:21.389 -> 330
09:46:21.389 -> 335
09:46:21.389 -> 335
09:46:21.389 -> 333
09:46:21.389 -> 337
09:46:21.389 -> 342
09:46:21.389 -> 340
09:46:21.426 -> 339
09:46:21.426 -> 344
09:46:21.426 -> 346
09:46:21.426 -> 344
09:46:21.426 -> 351
09:46:21.426 -> 357
09:46:21.426 -> 350
09:46:21.469 -> 344
09:46:21.469 -> 350
09:46:21.469 -> 360
09:46:21.469 -> 364
09:46:21.469 -> 363
09:46:21.469 -> 367
09:46:21.469 -> 374
09:46:21.469 -> 374
09:46:21.469 -> 372
09:46:21.509 -> 375
09:46:21.509 -> 384
09:46:21.509 -> 385
09:46:21.509 -> 379
09:46:21.509 -> 377
09:46:21.509 -> 379
09:46:21.509 -> 372
09:46:21.549 -> 360
09:46:21.549 -> 354
09:46:21.549 -> 349
09:46:21.549 -> 341
09:46:21.549 -> 330
09:46:21.549 -> 328
09:46:21.549 -> 327
09:46:21.589 -> 321
09:46:21.589 -> 314
09:46:21.589 -> 313
09:46:21.589 -> 316
09:46:21.589 -> 310
09:46:21.589 -> 306
09:46:21.589 -> 309
09:46:21.589 -> 307
09:46:21.629 -> 304
09:46:21.629 -> 305
09:46:21.629 -> 308
09:46:21.629 -> 305
09:46:21.629 -> 304
09:46:21.629 -> 309
09:46:21.629 -> 313
09:46:21.629 -> 307
09:46:21.669 -> 302
09:46:21.669 -> 314
09:46:21.669 -> 316
09:46:21.669 -> 303
09:46:21.669 -> 301
09:46:21.669 -> 308
09:46:21.669 -> 311
09:46:21.709 -> 308
09:46:21.709 -> 309
09:46:21.709 -> 312
09:46:21.709 -> 310
09:46:21.709 -> 306
09:46:21.709 -> 310
09:46:21.709 -> 318
09:46:21.709 -> 318
09:46:21.749 -> 313
09:46:21.749 -> 313
09:46:21.749 -> 318
09:46:21.749 -> 316
09:46:21.749 -> 312
09:46:21.749 -> 315
09:46:21.749 -> 318
09:46:21.749 -> 314
09:46:21.789 -> 310
09:46:21.789 -> 314
09:46:21.789 -> 320
09:46:21.789 -> 318
09:46:21.789 -> 315
09:46:21.789 -> 317
09:46:21.789 -> 321
09:46:21.789 -> 317
09:46:21.829 -> 313
09:46:21.829 -> 315
09:46:21.829 -> 321
09:46:21.829 -> 324
09:46:21.829 -> 311
09:46:21.829 -> 308
09:46:21.829 -> 312
09:46:21.869 -> 313
09:46:21.869 -> 312
09:46:21.869 -> 316
09:46:21.869 -> 318
09:46:21.869 -> 313
09:46:21.869 -> 311
09:46:21.869 -> 317
09:46:21.869 -> 319
09:46:21.909 -> 316
09:46:21.909 -> 313
09:46:21.909 -> 319
09:46:21.909 -> 319
09:46:21.909 -> 317
09:46:21.909 -> 319
09:46:21.909 -> 327
09:46:21.909 -> 329
09:46:21.949 -> 327
09:46:21.949 -> 334
09:46:21.949 -> 333
09:46:21.949 -> 332
09:46:21.949 -> 337
09:46:21.949 -> 342
09:46:21.949 -> 336
09:46:21.949 -> 330
09:46:21.989 -> 332
09:46:21.989 -> 336
09:46:21.989 -> 322
09:46:21.989 -> 307
09:46:21.989 -> 311
09:46:21.989 -> 317
09:46:21.989 -> 316
09:46:21.989 -> 312
09:46:22.029 -> 315
09:46:22.029 -> 318
09:46:22.029 -> 315
09:46:22.029 -> 314
09:46:22.029 -> 317
09:46:22.029 -> 320
09:46:22.029 -> 326
09:46:22.069 -> 346
09:46:22.069 -> 375
09:46:22.069 -> 395
09:46:22.069 -> 381
09:46:22.069 -> 356
09:46:22.069 -> 338
09:46:22.069 -> 314
09:46:22.109 -> 279
09:46:22.109 -> 281
09:46:22.109 -> 313
09:46:22.109 -> 336
09:46:22.109 -> 326
09:46:22.109 -> 317
09:46:22.109 -> 323
09:46:22.109 -> 324
09:46:22.149 -> 320
09:46:22.149 -> 323
09:46:22.149 -> 328
09:46:22.149 -> 328
09:46:22.149 -> 325
09:46:22.149 -> 326
09:46:22.149 -> 328
09:46:22.149 -> 327
09:46:22.189 -> 325
09:46:22.189 -> 328
09:46:22.189 -> 336
09:46:22.189 -> 337
09:46:22.189 -> 334
09:46:22.189 -> 335
09:46:22.189 -> 338
09:46:22.229 -> 336
09:46:22.229 -> 336
09:46:22.229 -> 342
09:46:22.229 -> 347
09:46:22.229 -> 342
09:46:22.229 -> 340
09:46:22.229 -> 348
09:46:22.229 -> 361
09:46:22.269 -> 357
09:46:22.269 -> 343
09:46:22.269 -> 348
09:46:22.269 -> 357
09:46:22.269 -> 361
09:46:22.269 -> 368
09:46:22.269 -> 370
09:46:22.269 -> 367
09:46:22.309 -> 369
09:46:22.309 -> 378
09:46:22.309 -> 381
09:46:22.309 -> 377
09:46:22.309 -> 374
09:46:22.309 -> 376
09:46:22.309 -> 374
09:46:22.309 -> 367
09:46:22.349 -> 362
09:46:22.349 -> 357
09:46:22.349 -> 346
09:46:22.349 -> 333
09:46:22.349 -> 329
09:46:22.349 -> 333
09:46:22.349 -> 329
09:46:22.389 -> 310
09:46:22.389 -> 306
09:46:22.389 -> 314
09:46:22.389 -> 311
09:46:22.389 -> 307
09:46:22.389 -> 310
09:46:22.389 -> 313
09:46:22.389 -> 308
09:46:22.427 -> 303
09:46:22.427 -> 307
09:46:22.427 -> 311
09:46:22.427 -> 307
09:46:22.427 -> 306
09:46:22.427 -> 309
09:46:22.427 -> 312
09:46:22.469 -> 310
09:46:22.469 -> 309
09:46:22.469 -> 312
09:46:22.469 -> 313
09:46:22.469 -> 309
09:46:22.469 -> 307
09:46:22.469 -> 315
09:46:22.469 -> 326
09:46:22.469 -> 313
09:46:22.509 -> 303
09:46:22.509 -> 308
09:46:22.509 -> 312
09:46:22.509 -> 310
09:46:22.509 -> 311
09:46:22.509 -> 316
09:46:22.509 -> 315
09:46:22.549 -> 310
09:46:22.549 -> 312
09:46:22.549 -> 318
09:46:22.549 -> 319
09:46:22.549 -> 314
09:46:22.549 -> 316
09:46:22.549 -> 318
09:46:22.549 -> 314
09:46:22.589 -> 311
09:46:22.589 -> 317
09:46:22.589 -> 323
09:46:22.589 -> 318
09:46:22.589 -> 313
09:46:22.589 -> 315
09:46:22.589 -> 320
09:46:22.629 -> 315
09:46:22.629 -> 317
09:46:22.629 -> 320
09:46:22.629 -> 316
09:46:22.629 -> 312
09:46:22.629 -> 317
09:46:22.629 -> 325
09:46:22.629 -> 327
09:46:22.669 -> 314
09:46:22.669 -> 313
09:46:22.669 -> 318
09:46:22.669 -> 317
09:46:22.669 -> 319
09:46:22.669 -> 324
09:46:22.669 -> 325
09:46:22.669 -> 321
09:46:22.709 -> 323
09:46:22.709 -> 329
09:46:22.709 -> 329
09:46:22.709 -> 327
09:46:22.709 -> 331
09:46:22.709 -> 338
09:46:22.709 -> 336
09:46:22.749 -> 329
09:46:22.749 -> 326
09:46:22.749 -> 325
09:46:22.749 -> 321
09:46:22.749 -> 315
09:46:22.749 -> 316
09:46:22.749 -> 322
09:46:22.749 -> 320
09:46:22.789 -> 316
09:46:22.789 -> 318
09:46:22.789 -> 322
09:46:22.789 -> 317
09:46:22.789 -> 311
09:46:22.789 -> 313
09:46:22.789 -> 319
09:46:22.789 -> 317
09:46:22.829 -> 312
09:46:22.829 -> 321
09:46:22.829 -> 345
09:46:22.829 -> 367
09:46:22.829 -> 384
09:46:22.829 -> 386
09:46:22.829 -> 371
09:46:22.829 -> 343
09:46:22.869 -> 315
09:46:22.869 -> 286
09:46:22.869 -> 280
09:46:22.869 -> 300
09:46:22.869 -> 319
09:46:22.869 -> 325
09:46:22.869 -> 326
09:46:22.909 -> 324
09:46:22.909 -> 324
09:46:22.909 -> 327
09:46:22.909 -> 327
09:46:22.909 -> 322
09:46:22.909 -> 323
09:46:22.909 -> 330
09:46:22.909 -> 331
09:46:22.949 -> 325
09:46:22.949 -> 331
09:46:22.949 -> 332
09:46:22.949 -> 328
09:46:22.949 -> 331
09:46:22.949 -> 336
09:46:22.949 -> 335
09:46:22.949 -> 331
09:46:22.989 -> 333
09:46:22.989 -> 339
09:46:22.989 -> 337
09:46:22.989 -> 335
09:46:22.989 -> 339
09:46:22.989 -> 345
09:46:22.989 -> 344
09:46:22.989 -> 342
09:46:23.029 -> 346
09:46:23.029 -> 353
09:46:23.029 -> 351
09:46:23.029 -> 351
09:46:23.029 -> 357
09:46:23.029 -> 363
09:46:23.029 -> 363
09:46:23.069 -> 364
09:46:23.069 -> 369
09:46:23.069 -> 375
09:46:23.069 -> 372
09:46:23.069 -> 371
09:46:23.069 -> 377
09:46:23.069 -> 377
09:46:23.069 -> 370
09:46:23.109 -> 364
09:46:23.109 -> 362
09:46:23.109 -> 356
09:46:23.109 -> 343
09:46:23.109 -> 336
09:46:23.109 -> 335
09:46:23.109 -> 330
09:46:23.149 -> 320
09:46:23.149 -> 316
09:46:23.149 -> 317
09:46:23.149 -> 314
09:46:23.149 -> 309
09:46:23.149 -> 309
09:46:23.149 -> 313
09:46:23.149 -> 310
09:46:23.189 -> 304
09:46:23.189 -> 304
09:46:23.189 -> 310
09:46:23.189 -> 309
09:46:23.189 -> 305
09:46:23.189 -> 305
09:46:23.189 -> 309
09:46:23.229 -> 305
09:46:23.229 -> 302
09:46:23.229 -> 306
09:46:23.229 -> 309
09:46:23.229 -> 306
09:46:23.229 -> 302
09:46:23.229 -> 306
09:46:23.229 -> 308
09:46:23.269 -> 305
09:46:23.269 -> 301
09:46:23.269 -> 304
09:46:23.269 -> 308
09:46:23.269 -> 301
09:46:23.269 -> 305
09:46:23.269 -> 309
09:46:23.269 -> 305
09:46:23.309 -> 303
09:46:23.309 -> 306
09:46:23.309 -> 307
09:46:23.309 -> 304
09:46:23.309 -> 304
09:46:23.309 -> 308
09:46:23.309 -> 311
09:46:23.309 -> 306
09:46:23.349 -> 306
09:46:23.349 -> 311
09:46:23.349 -> 309
09:46:23.349 -> 305
09:46:23.349 -> 305
09:46:23.349 -> 309
09:46:23.349 -> 308
09:46:23.349 -> 305
09:46:23.389 -> 307
09:46:23.389 -> 311
09:46:23.389 -> 309
09:46:23.389 -> 306
09:46:23.389 -> 308
09:46:23.389 -> 312
09:46:23.389 -> 309
09:46:23.429 -> 306
09:46:23.429 -> 308
09:46:23.429 -> 312
09:46:23.429 -> 309
09:46:23.429 -> 304
09:46:23.429 -> 308
09:46:23.429 -> 312
09:46:23.429 -> 309
09:46:23.469 -> 304
09:46:23.469 -> 308
09:46:23.469 -> 311
09:46:23.469 -> 308
09:46:23.469 -> 306
09:46:23.469 -> 309
09:46:23.469 -> 314
09:46:23.469 -> 311
09:46:23.509 -> 309
09:46:23.509 -> 312
09:46:23.509 -> 313
09:46:23.509 -> 311
09:46:23.509 -> 314
09:46:23.509 -> 321
09:46:23.509 -> 320
09:46:23.509 -> 315
09:46:23.549 -> 316
09:46:23.549 -> 321
09:46:23.549 -> 321
09:46:23.549 -> 318
09:46:23.549 -> 320
09:46:23.549 -> 328
09:46:23.549 -> 331
09:46:23.589 -> 326
09:46:23.589 -> 322
09:46:23.589 -> 321
09:46:23.589 -> 316
09:46:23.589 -> 310
09:46:23.589 -> 311
09:46:23.589 -> 311
09:46:23.589 -> 306
09:46:23.628 -> 309
09:46:23.628 -> 316
09:46:23.628 -> 314
09:46:23.628 -> 308
09:46:23.628 -> 310
09:46:23.628 -> 315
09:46:23.628 -> 309
09:46:23.669 -> 304
09:46:23.669 -> 314
09:46:23.669 -> 333
09:46:23.669 -> 353
09:46:23.669 -> 381
09:46:23.669 -> 400
09:46:23.669 -> 392
09:46:23.669 -> 365
09:46:23.709 -> 336
09:46:23.709 -> 303
09:46:23.709 -> 280
09:46:23.709 -> 294
09:46:23.709 -> 312
09:46:23.709 -> 320
09:46:23.709 -> 321
09:46:23.749 -> 316
09:46:23.749 -> 317
09:46:23.749 -> 322
09:46:23.749 -> 323
09:46:23.749 -> 320
09:46:23.749 -> 321
09:46:23.749 -> 327
09:46:23.749 -> 326
09:46:23.789 -> 322
09:46:23.789 -> 322
09:46:23.789 -> 328
09:46:23.789 -> 328
09:46:23.789 -> 327
09:46:23.789 -> 329
09:46:23.789 -> 333
09:46:23.789 -> 330
09:46:23.829 -> 326
09:46:23.829 -> 329
09:46:23.829 -> 335
09:46:23.829 -> 336
09:46:23.829 -> 333
09:46:23.829 -> 336
09:46:23.829 -> 341
09:46:23.829 -> 340
09:46:23.869 -> 339
09:46:23.869 -> 343
09:46:23.869 -> 349
09:46:23.869 -> 347
09:46:23.869 -> 346
09:46:23.869 -> 352
09:46:23.869 -> 359
09:46:23.869 -> 358
09:46:23.909 -> 358
09:46:23.909 -> 367
09:46:23.909 -> 374
09:46:23.909 -> 371
09:46:23.909 -> 371
09:46:23.909 -> 377
09:46:23.909 -> 380
09:46:23.949 -> 377
09:46:23.949 -> 375
09:46:23.949 -> 366
09:46:23.949 -> 353
09:46:23.949 -> 345
09:46:23.949 -> 342
09:46:23.949 -> 334
09:46:23.949 -> 323
09:46:23.989 -> 318
09:46:23.989 -> 318
09:46:23.989 -> 314
09:46:23.989 -> 308
09:46:23.989 -> 309
09:46:23.989 -> 312
09:46:23.989 -> 308
09:46:23.989 -> 304
09:46:24.029 -> 305
09:46:24.029 -> 310
09:46:24.029 -> 307
09:46:24.029 -> 301
09:46:24.029 -> 304
09:46:24.029 -> 309
09:46:24.029 -> 307
09:46:24.029 -> 302
09:46:24.069 -> 304
09:46:24.069 -> 309
09:46:24.069 -> 306
09:46:24.069 -> 304
09:46:24.069 -> 307
09:46:24.069 -> 310
09:46:24.069 -> 306
09:46:24.109 -> 304
09:46:24.109 -> 309
09:46:24.109 -> 312
09:46:24.109 -> 308
09:46:24.109 -> 307
09:46:24.109 -> 310
09:46:24.109 -> 312
09:46:24.109 -> 309
09:46:24.149 -> 307
09:46:24.149 -> 311
09:46:24.149 -> 314
09:46:24.149 -> 309
09:46:24.149 -> 309
09:46:24.149 -> 314
09:46:24.149 -> 314
09:46:24.189 -> 309
09:46:24.189 -> 309
09:46:24.189 -> 311
09:46:24.189 -> 312
09:46:24.189 -> 312
09:46:24.189 -> 312
09:46:24.189 -> 316
09:46:24.189 -> 315
09:46:24.229 -> 311
09:46:24.229 -> 314
09:46:24.229 -> 317
09:46:24.229 -> 314
09:46:24.229 -> 310
09:46:24.229 -> 314
09:46:24.229 -> 320
09:46:24.269 -> 318
09:46:24.269 -> 314
09:46:24.269 -> 316
09:46:24.269 -> 320
09:46:24.269 -> 314
09:46:24.269 -> 318
09:46:24.269 -> 323
09:46:24.269 -> 319
09:46:24.309 -> 316
09:46:24.309 -> 319
09:46:24.309 -> 322
09:46:24.309 -> 318
09:46:24.309 -> 316
09:46:24.309 -> 321
09:46:24.309 -> 323
09:46:24.309 -> 319
09:46:24.349 -> 320
09:46:24.349 -> 325
09:46:24.349 -> 324
09:46:24.349 -> 319
09:46:24.349 -> 319
09:46:24.349 -> 324
09:46:24.349 -> 324
09:46:24.349 -> 319
09:46:24.389 -> 319
09:46:24.389 -> 324
09:46:24.389 -> 325
09:46:24.389 -> 320
09:46:24.389 -> 321
09:46:24.389 -> 324
09:46:24.389 -> 322
09:46:24.428 -> 319
09:46:24.428 -> 322
09:46:24.428 -> 327
09:46:24.428 -> 326
09:46:24.428 -> 321
09:46:24.428 -> 323
09:46:24.428 -> 327
09:46:24.428 -> 324
09:46:24.469 -> 320
09:46:24.469 -> 325
09:46:24.469 -> 330
09:46:24.469 -> 325
09:46:24.469 -> 320
09:46:24.469 -> 323
09:46:24.469 -> 327
09:46:24.469 -> 321
09:46:24.509 -> 322
09:46:24.509 -> 327
09:46:24.509 -> 328
09:46:24.509 -> 323
09:46:24.509 -> 321
09:46:24.509 -> 325
09:46:24.509 -> 327
09:46:24.509 -> 321
09:46:24.549 -> 320
09:46:24.549 -> 325
09:46:24.549 -> 326
09:46:24.549 -> 323
09:46:24.549 -> 323
09:46:24.549 -> 329
09:46:24.549 -> 326
09:46:24.549 -> 320
09:46:24.589 -> 321
09:46:24.589 -> 326
09:46:24.589 -> 327
09:46:24.589 -> 321
09:46:24.589 -> 322
09:46:24.589 -> 326
09:46:24.589 -> 320
09:46:24.629 -> 321
09:46:24.629 -> 328
09:46:24.629 -> 328
09:46:24.629 -> 328
09:46:24.629 -> 334
09:46:24.629 -> 338
09:46:24.629 -> 337
09:46:24.669 -> 336
09:46:24.669 -> 341
09:46:24.669 -> 344
09:46:24.669 -> 340
09:46:24.669 -> 337
09:46:24.669 -> 338
09:46:24.669 -> 339
09:46:24.669 -> 335
09:46:24.709 -> 331
09:46:24.709 -> 330
09:46:24.709 -> 328
09:46:24.709 -> 321
09:46:24.709 -> 317
09:46:24.709 -> 321
09:46:24.709 -> 325
09:46:24.709 -> 320
09:46:24.749 -> 317
09:46:24.749 -> 320
09:46:24.749 -> 322
09:46:24.749 -> 319
09:46:24.749 -> 314
09:46:24.749 -> 320
09:46:24.749 -> 331
09:46:24.789 -> 349
09:46:24.789 -> 380
09:46:24.789 -> 414
09:46:24.789 -> 412
09:46:24.789 -> 384
09:46:24.789 -> 357
09:46:24.789 -> 330
09:46:24.789 -> 291
09:46:24.829 -> 289
09:46:24.829 -> 311
09:46:24.829 -> 323
09:46:24.829 -> 322
09:46:24.829 -> 320
09:46:24.829 -> 321
09:46:24.829 -> 325
09:46:24.829 -> 325
09:46:24.869 -> 320
09:46:24.869 -> 322
09:46:24.869 -> 325
09:46:24.869 -> 322
09:46:24.869 -> 320
09:46:24.869 -> 324
09:46:24.869 -> 330
09:46:24.869 -> 329
09:46:24.909 -> 325
09:46:24.909 -> 328
09:46:24.909 -> 332
09:46:24.909 -> 330
09:46:24.909 -> 329
09:46:24.909 -> 334
09:46:24.909 -> 338
09:46:24.948 -> 336
09:46:24.948 -> 341
09:46:24.948 -> 344
09:46:24.948 -> 339
09:46:24.948 -> 339
09:46:24.948 -> 346
09:46:24.948 -> 349
09:46:24.948 -> 346
09:46:24.989 -> 349
09:46:24.989 -> 356
09:46:24.989 -> 360
09:46:24.989 -> 358
09:46:24.989 -> 361
09:46:24.989 -> 369
09:46:24.989 -> 372
09:46:24.989 -> 370
09:46:25.029 -> 372
09:46:25.029 -> 378
09:46:25.029 -> 379
09:46:25.029 -> 375
09:46:25.029 -> 377
09:46:25.029 -> 382
09:46:25.029 -> 376
09:46:25.029 -> 363
09:46:25.069 -> 357
09:46:25.069 -> 355
09:46:25.069 -> 345
09:46:25.069 -> 333
09:46:25.069 -> 328
09:46:25.069 -> 326
09:46:25.069 -> 320
09:46:25.069 -> 313
09:46:25.109 -> 313
09:46:25.109 -> 313
09:46:25.109 -> 308
09:46:25.109 -> 304
09:46:25.109 -> 306
09:46:25.109 -> 310
09:46:25.109 -> 303
09:46:25.149 -> 300
09:46:25.149 -> 305
09:46:25.149 -> 309
09:46:25.149 -> 304
09:46:25.149 -> 302
09:46:25.149 -> 307
09:46:25.149 -> 310
09:46:25.189 -> 305
09:46:25.189 -> 304
09:46:25.189 -> 307
09:46:25.189 -> 308
09:46:25.189 -> 305
09:46:25.189 -> 305
09:46:25.189 -> 309
09:46:25.189 -> 310
09:46:25.229 -> 308
09:46:25.229 -> 304
09:46:25.229 -> 308
09:46:25.229 -> 310
09:46:25.229 -> 307
09:46:25.229 -> 306
09:46:25.229 -> 310
09:46:25.229 -> 309
09:46:25.269 -> 305
09:46:25.269 -> 308
09:46:25.269 -> 313
09:46:25.269 -> 308
09:46:25.269 -> 309
09:46:25.269 -> 314
09:46:25.269 -> 310
09:46:25.308 -> 308
09:46:25.308 -> 311
09:46:25.308 -> 314
09:46:25.308 -> 311
09:46:25.308 -> 306
09:46:25.308 -> 310
09:46:25.308 -> 314
09:46:25.308 -> 309
09:46:25.349 -> 306
09:46:25.349 -> 311
09:46:25.349 -> 315
09:46:25.349 -> 311
09:46:25.349 -> 309
09:46:25.349 -> 313
09:46:25.349 -> 315
09:46:25.349 -> 310
09:46:25.389 -> 308
09:46:25.389 -> 314
09:46:25.389 -> 315
09:46:25.389 -> 310
09:46:25.389 -> 311
09:46:25.389 -> 316
09:46:25.389 -> 315
09:46:25.389 -> 310
09:46:25.429 -> 310
09:46:25.429 -> 315
09:46:25.429 -> 316
09:46:25.429 -> 315
09:46:25.429 -> 315
09:46:25.429 -> 317
09:46:25.429 -> 316
09:46:25.469 -> 313
09:46:25.469 -> 316
09:46:25.469 -> 321
09:46:25.469 -> 318
09:46:25.469 -> 313
09:46:25.469 -> 316
09:46:25.469 -> 323
09:46:25.469 -> 321
09:46:25.509 -> 317
09:46:25.509 -> 318
09:46:25.509 -> 322
09:46:25.509 -> 319
09:46:25.509 -> 318
09:46:25.509 -> 321
09:46:25.509 -> 325
09:46:25.509 -> 320
09:46:25.549 -> 318
09:46:25.549 -> 321
09:46:25.549 -> 323
09:46:25.549 -> 320
09:46:25.549 -> 318
09:46:25.549 -> 322
09:46:25.549 -> 324
09:46:25.549 -> 319
09:46:25.589 -> 319
09:46:25.589 -> 325
09:46:25.589 -> 326
09:46:25.589 -> 322
09:46:25.589 -> 321
09:46:25.589 -> 328
09:46:25.589 -> 322
09:46:25.629 -> 320
09:46:25.629 -> 324
09:46:25.629 -> 324
09:46:25.629 -> 322
09:46:25.629 -> 322
09:46:25.629 -> 329
09:46:25.629 -> 329
09:46:25.629 -> 327
09:46:25.669 -> 333
09:46:25.669 -> 340
09:46:25.669 -> 339
09:46:25.669 -> 338
09:46:25.669 -> 341
09:46:25.669 -> 345
09:46:25.669 -> 344
09:46:25.709 -> 339
09:46:25.709 -> 339
09:46:25.709 -> 342
09:46:25.709 -> 337
09:46:25.709 -> 332
09:46:25.709 -> 330
09:46:25.709 -> 327
09:46:25.709 -> 320
09:46:25.749 -> 317
09:46:25.749 -> 323
09:46:25.749 -> 326
09:46:25.749 -> 321
09:46:25.749 -> 318
09:46:25.749 -> 324
09:46:25.749 -> 327
09:46:25.789 -> 320
09:46:25.789 -> 315
09:46:25.789 -> 319
09:46:25.789 -> 330
09:46:25.789 -> 346
09:46:25.789 -> 375
09:46:25.789 -> 413
09:46:25.789 -> 416
09:46:25.829 -> 389
09:46:25.829 -> 360
09:46:25.829 -> 335
09:46:25.829 -> 294
09:46:25.829 -> 285
09:46:25.829 -> 310
09:46:25.829 -> 327
09:46:25.829 -> 328
09:46:25.869 -> 325
09:46:25.869 -> 323
09:46:25.869 -> 326
09:46:25.869 -> 326
09:46:25.869 -> 323
09:46:25.869 -> 324
09:46:25.869 -> 329
09:46:25.869 -> 328
09:46:25.909 -> 325
09:46:25.909 -> 327
09:46:25.909 -> 332
09:46:25.909 -> 331
09:46:25.909 -> 328
09:46:25.909 -> 332
09:46:25.909 -> 337
09:46:25.909 -> 334
09:46:25.949 -> 335
09:46:25.949 -> 340
09:46:25.949 -> 338
09:46:25.949 -> 336
09:46:25.949 -> 340
09:46:25.949 -> 343
09:46:25.949 -> 339
09:46:25.989 -> 341
09:46:25.989 -> 349
09:46:25.989 -> 352
09:46:25.989 -> 349
09:46:25.989 -> 348
09:46:25.989 -> 355
09:46:25.989 -> 360
09:46:25.989 -> 359
09:46:26.029 -> 362
09:46:26.029 -> 369
09:46:26.029 -> 373
09:46:26.029 -> 369
09:46:26.029 -> 370
09:46:26.029 -> 378
09:46:26.029 -> 381
09:46:26.029 -> 377
09:46:26.069 -> 377
09:46:26.069 -> 381
09:46:26.069 -> 376
09:46:26.069 -> 366
09:46:26.069 -> 359
09:46:26.069 -> 356
09:46:26.069 -> 347
09:46:26.069 -> 335
09:46:26.109 -> 330
09:46:26.109 -> 328
09:46:26.109 -> 318
09:46:26.109 -> 309
09:46:26.109 -> 310
09:46:26.109 -> 312
09:46:26.109 -> 307
09:46:26.149 -> 304
09:46:26.149 -> 307
09:46:26.149 -> 310
09:46:26.149 -> 306
09:46:26.149 -> 300
09:46:26.149 -> 304
09:46:26.149 -> 309
09:46:26.149 -> 306
09:46:26.189 -> 304
09:46:26.189 -> 309
09:46:26.189 -> 312
09:46:26.189 -> 308
09:46:26.189 -> 306
09:46:26.189 -> 311
09:46:26.189 -> 314
09:46:26.229 -> 310
09:46:26.229 -> 308
09:46:26.229 -> 313
09:46:26.229 -> 313
09:46:26.229 -> 309
09:46:26.229 -> 308
09:46:26.229 -> 314
09:46:26.229 -> 313
09:46:26.269 -> 309
09:46:26.269 -> 309
09:46:26.269 -> 314
09:46:26.269 -> 311
09:46:26.269 -> 311
09:46:26.269 -> 314
09:46:26.269 -> 313
09:46:26.309 -> 311
09:46:26.309 -> 313
09:46:26.309 -> 319
09:46:26.309 -> 315
09:46:26.309 -> 310
09:46:26.309 -> 312
09:46:26.309 -> 318
09:46:26.309 -> 315
09:46:26.349 -> 310
09:46:26.349 -> 313
09:46:26.349 -> 317
09:46:26.349 -> 315
09:46:26.349 -> 312
09:46:26.349 -> 315
09:46:26.349 -> 318
09:46:26.349 -> 315
09:46:26.389 -> 312
09:46:26.389 -> 315
09:46:26.389 -> 317
09:46:26.389 -> 312
09:46:26.389 -> 312
09:46:26.389 -> 317
09:46:26.389 -> 318
09:46:26.389 -> 313
09:46:26.429 -> 313
09:46:26.429 -> 317
09:46:26.429 -> 320
09:46:26.429 -> 316
09:46:26.429 -> 315
09:46:26.429 -> 319
09:46:26.429 -> 319
09:46:26.429 -> 315
09:46:26.469 -> 315
09:46:26.469 -> 318
09:46:26.469 -> 317
09:46:26.469 -> 316
09:46:26.469 -> 319
09:46:26.469 -> 324
09:46:26.469 -> 321
09:46:26.509 -> 316
09:46:26.509 -> 318
09:46:26.509 -> 323
09:46:26.509 -> 319
09:46:26.509 -> 314
09:46:26.509 -> 317
09:46:26.509 -> 321
09:46:26.509 -> 320
09:46:26.549 -> 316
09:46:26.549 -> 319
09:46:26.549 -> 322
09:46:26.549 -> 320
09:46:26.549 -> 317
09:46:26.549 -> 321
09:46:26.549 -> 326
09:46:26.549 -> 323
09:46:26.589 -> 320
09:46:26.589 -> 327
09:46:26.589 -> 335
09:46:26.589 -> 331
09:46:26.589 -> 332
09:46:26.589 -> 338
09:46:26.589 -> 336
09:46:26.589 -> 339
09:46:26.629 -> 341
09:46:26.629 -> 340
09:46:26.629 -> 333
09:46:26.629 -> 329
09:46:26.629 -> 329
09:46:26.629 -> 325
09:46:26.629 -> 319
09:46:26.669 -> 318
09:46:26.669 -> 322
09:46:26.669 -> 320
09:46:26.669 -> 316
09:46:26.669 -> 317
09:46:26.669 -> 320
09:46:26.669 -> 318
09:46:26.669 -> 316
09:46:26.709 -> 318
09:46:26.709 -> 319
09:46:26.709 -> 319
09:46:26.709 -> 330
09:46:26.709 -> 358
09:46:26.709 -> 389
09:46:26.709 -> 397
09:46:26.749 -> 382
09:46:26.749 -> 361
09:46:26.749 -> 339
09:46:26.749 -> 305
09:46:26.749 -> 274
09:46:26.749 -> 289
09:46:26.749 -> 321
09:46:26.749 -> 323
09:46:26.789 -> 317
09:46:26.789 -> 322
09:46:26.789 -> 328
09:46:26.789 -> 326
09:46:26.789 -> 324
09:46:26.789 -> 328
09:46:26.789 -> 331
09:46:26.829 -> 329
09:46:26.829 -> 328
09:46:26.829 -> 333
09:46:26.829 -> 334
09:46:26.829 -> 328
09:46:26.829 -> 328
09:46:26.829 -> 335
09:46:26.829 -> 337
09:46:26.869 -> 333
09:46:26.869 -> 334
09:46:26.869 -> 339
09:46:26.869 -> 340
09:46:26.869 -> 336
09:46:26.869 -> 338
09:46:26.869 -> 344
09:46:26.869 -> 346
09:46:26.909 -> 344
09:46:26.909 -> 346
09:46:26.909 -> 352
09:46:26.909 -> 351
09:46:26.909 -> 347
09:46:26.909 -> 352
09:46:26.909 -> 360
09:46:26.909 -> 361
09:46:26.949 -> 365
09:46:26.949 -> 377
09:46:26.949 -> 381
09:46:26.949 -> 369
09:46:26.949 -> 366
09:46:26.949 -> 374
09:46:26.949 -> 374
09:46:26.949 -> 374
09:46:26.989 -> 380
09:46:26.989 -> 382
09:46:26.989 -> 374
09:46:26.989 -> 365
09:46:26.989 -> 360
09:46:26.989 -> 357
09:46:26.989 -> 346
09:46:27.029 -> 335
09:46:27.029 -> 332
09:46:27.029 -> 327
09:46:27.029 -> 318
09:46:27.029 -> 315
09:46:27.029 -> 316
09:46:27.029 -> 315
09:46:27.029 -> 310
09:46:27.069 -> 308
09:46:27.069 -> 310
09:46:27.069 -> 309
09:46:27.069 -> 304
09:46:27.069 -> 306
09:46:27.069 -> 308
09:46:27.069 -> 306
09:46:27.069 -> 303
09:46:27.109 -> 304
09:46:27.109 -> 310
09:46:27.109 -> 308
09:46:27.109 -> 303
09:46:27.109 -> 305
09:46:27.109 -> 310
09:46:27.109 -> 311
09:46:27.109 -> 315
09:46:27.149 -> 314
09:46:27.149 -> 310
09:46:27.149 -> 304
09:46:27.149 -> 302
09:46:27.149 -> 307
09:46:27.149 -> 314
09:46:27.149 -> 312
09:46:27.189 -> 310
09:46:27.189 -> 312
09:46:27.189 -> 316
09:46:27.189 -> 310
09:46:27.189 -> 308
09:46:27.189 -> 313
09:46:27.189 -> 317
09:46:27.189 -> 313
09:46:27.229 -> 310
09:46:27.229 -> 311
09:46:27.229 -> 315
09:46:27.229 -> 312
09:46:27.229 -> 311
09:46:27.229 -> 315
09:46:27.229 -> 317
09:46:27.269 -> 313
09:46:27.269 -> 312
09:46:27.269 -> 316
09:46:27.269 -> 321
09:46:27.269 -> 315
09:46:27.269 -> 309
09:46:27.269 -> 309
09:46:27.269 -> 308
09:46:27.309 -> 310
09:46:27.309 -> 316
09:46:27.309 -> 315
09:46:27.309 -> 309
09:46:27.309 -> 312
09:46:27.309 -> 319
09:46:27.309 -> 317
09:46:27.349 -> 312
09:46:27.349 -> 312
09:46:27.349 -> 319
09:46:27.349 -> 315
09:46:27.349 -> 310
09:46:27.349 -> 313
09:46:27.349 -> 319
09:46:27.349 -> 318
09:46:27.389 -> 313
09:46:27.389 -> 315
09:46:27.389 -> 323
09:46:27.389 -> 320
09:46:27.389 -> 318
09:46:27.389 -> 321
09:46:27.389 -> 326
09:46:27.389 -> 324
09:46:27.429 -> 323
09:46:27.429 -> 327
09:46:27.429 -> 330
09:46:27.429 -> 328
09:46:27.429 -> 329
09:46:27.429 -> 337
09:46:27.429 -> 340
09:46:27.429 -> 321
09:46:27.469 -> 312
09:46:27.469 -> 315
09:46:27.469 -> 317
09:46:27.469 -> 314
09:46:27.469 -> 316
09:46:27.469 -> 318
09:46:27.469 -> 313
09:46:27.509 -> 310
09:46:27.509 -> 314
09:46:27.509 -> 321
09:46:27.509 -> 318
09:46:27.509 -> 312
09:46:27.509 -> 314
09:46:27.509 -> 319
09:46:27.509 -> 318
09:46:27.549 -> 321
09:46:27.549 -> 342
09:46:27.549 -> 372
09:46:27.549 -> 390
09:46:27.549 -> 381
09:46:27.549 -> 363
09:46:27.549 -> 342
09:46:27.549 -> 313
09:46:27.589 -> 280
09:46:27.589 -> 288
09:46:27.589 -> 306
09:46:27.589 -> 313
09:46:27.589 -> 311
09:46:27.589 -> 324
09:46:27.589 -> 324
09:46:27.589 -> 321
09:46:27.629 -> 324
09:46:27.629 -> 328
09:46:27.629 -> 324
09:46:27.629 -> 323
09:46:27.629 -> 328
09:46:27.629 -> 330
09:46:27.629 -> 327
09:46:27.629 -> 327
09:46:27.669 -> 334
09:46:27.669 -> 335
09:46:27.669 -> 330
09:46:27.669 -> 330
09:46:27.669 -> 336
09:46:27.669 -> 339
09:46:27.669 -> 341
09:46:27.709 -> 344
09:46:27.709 -> 337
09:46:27.709 -> 334
09:46:27.709 -> 335
09:46:27.709 -> 339
09:46:27.709 -> 347
09:46:27.709 -> 347
09:46:27.749 -> 344
09:46:27.749 -> 348
09:46:27.749 -> 355
09:46:27.749 -> 356
09:46:27.749 -> 356
09:46:27.749 -> 360
09:46:27.749 -> 368
09:46:27.749 -> 370
09:46:27.789 -> 366
09:46:27.789 -> 368
09:46:27.789 -> 374
09:46:27.789 -> 374
09:46:27.789 -> 375
09:46:27.789 -> 377
09:46:27.789 -> 381
09:46:27.789 -> 383
09:46:27.829 -> 371
09:46:27.829 -> 354
09:46:27.829 -> 348
09:46:27.829 -> 339
09:46:27.829 -> 332
09:46:27.829 -> 329
09:46:27.829 -> 328
09:46:27.869 -> 320
09:46:27.869 -> 314
09:46:27.869 -> 314
09:46:27.869 -> 314
09:46:27.869 -> 307
09:46:27.869 -> 306
09:46:27.869 -> 310
09:46:27.869 -> 310
09:46:27.909 -> 303
09:46:27.909 -> 303
09:46:27.909 -> 308
09:46:27.909 -> 309
09:46:27.909 -> 303
09:46:27.909 -> 305
09:46:27.909 -> 318
09:46:27.909 -> 310
09:46:27.949 -> 301
09:46:27.949 -> 310
09:46:27.949 -> 310
09:46:27.949 -> 304
09:46:27.949 -> 306
09:46:27.949 -> 310
09:46:27.949 -> 308
09:46:27.949 -> 306
09:46:27.989 -> 309
09:46:27.989 -> 314
09:46:27.989 -> 310
09:46:27.989 -> 307
09:46:27.989 -> 310
09:46:27.989 -> 313
09:46:27.989 -> 310
09:46:27.989 -> 307
09:46:28.029 -> 312
09:46:28.029 -> 317
09:46:28.029 -> 314
09:46:28.029 -> 313
09:46:28.029 -> 323
09:46:28.029 -> 314
09:46:28.029 -> 303
09:46:28.069 -> 304
09:46:28.069 -> 311
09:46:28.069 -> 315
09:46:28.069 -> 311
09:46:28.069 -> 312
09:46:28.069 -> 315
09:46:28.069 -> 316
09:46:28.069 -> 312
09:46:28.109 -> 311
09:46:28.109 -> 316
09:46:28.109 -> 319
09:46:28.109 -> 316
09:46:28.109 -> 316
09:46:28.109 -> 321
09:46:28.109 -> 321
09:46:28.109 -> 316
09:46:28.149 -> 318
09:46:28.149 -> 323
09:46:28.149 -> 327
09:46:28.149 -> 335
09:46:28.149 -> 332
09:46:28.149 -> 324
09:46:28.149 -> 318
09:46:28.189 -> 313
09:46:28.189 -> 312
09:46:28.189 -> 316
09:46:28.189 -> 314
09:46:28.189 -> 313
09:46:28.189 -> 316
09:46:28.189 -> 317
09:46:28.189 -> 314
09:46:28.229 -> 312
09:46:28.229 -> 316
09:46:28.229 -> 321
09:46:28.229 -> 315
09:46:28.229 -> 311
09:46:28.229 -> 314
09:46:28.229 -> 317
09:46:28.269 -> 314
09:46:28.269 -> 323
09:46:28.269 -> 348
09:46:28.269 -> 386
09:46:28.269 -> 377
09:46:28.269 -> 363
09:46:28.269 -> 343
09:46:28.269 -> 311
09:46:28.309 -> 268
09:46:28.309 -> 272
09:46:28.309 -> 302
09:46:28.309 -> 315
09:46:28.309 -> 317
09:46:28.309 -> 321
09:46:28.309 -> 323
09:46:28.309 -> 322
09:46:28.349 -> 325
09:46:28.349 -> 328
09:46:28.349 -> 327
09:46:28.349 -> 322
09:46:28.349 -> 323
09:46:28.349 -> 329
09:46:28.349 -> 328
09:46:28.389 -> 325
09:46:28.389 -> 329
09:46:28.389 -> 334
09:46:28.389 -> 332
09:46:28.389 -> 330
09:46:28.389 -> 334
09:46:28.389 -> 337
09:46:28.389 -> 333
09:46:28.429 -> 331
09:46:28.429 -> 337
09:46:28.429 -> 343
09:46:28.429 -> 339
09:46:28.429 -> 338
09:46:28.429 -> 344
09:46:28.429 -> 350
09:46:28.429 -> 346
09:46:28.468 -> 343
09:46:28.468 -> 348
09:46:28.468 -> 355
09:46:28.468 -> 354
09:46:28.468 -> 355
09:46:28.468 -> 361
09:46:28.468 -> 367
09:46:28.468 -> 366
09:46:28.509 -> 367
09:46:28.509 -> 372
09:46:28.509 -> 373
09:46:28.509 -> 371
09:46:28.509 -> 370
09:46:28.509 -> 374
09:46:28.509 -> 371
09:46:28.549 -> 361
09:46:28.549 -> 355
09:46:28.549 -> 353
09:46:28.549 -> 345
09:46:28.549 -> 333
09:46:28.549 -> 326
09:46:28.549 -> 326
09:46:28.549 -> 321
09:46:28.589 -> 315
09:46:28.589 -> 313
09:46:28.589 -> 316
09:46:28.589 -> 312
09:46:28.589 -> 306
09:46:28.589 -> 312
09:46:28.589 -> 307
09:46:28.589 -> 305
09:46:28.629 -> 311
09:46:28.629 -> 315
09:46:28.629 -> 311
09:46:28.629 -> 308
09:46:28.629 -> 311
09:46:28.629 -> 313
09:46:28.629 -> 307
09:46:28.629 -> 304
09:46:28.669 -> 308
09:46:28.669 -> 311
09:46:28.669 -> 308
09:46:28.669 -> 307
09:46:28.669 -> 311
09:46:28.669 -> 312
09:46:28.669 -> 307
09:46:28.709 -> 308
09:46:28.709 -> 313
09:46:28.709 -> 313
09:46:28.709 -> 307
09:46:28.709 -> 306
09:46:28.709 -> 311
09:46:28.709 -> 312
09:46:28.709 -> 310
09:46:28.749 -> 311
09:46:28.749 -> 312
09:46:28.749 -> 310
09:46:28.749 -> 306
09:46:28.749 -> 308
09:46:28.749 -> 312
09:46:28.749 -> 312
09:46:28.789 -> 308
09:46:28.789 -> 308
09:46:28.789 -> 314
09:46:28.789 -> 315
09:46:28.789 -> 311
09:46:28.789 -> 311
09:46:28.789 -> 314
09:46:28.789 -> 312
09:46:28.829 -> 307
09:46:28.829 -> 310
09:46:28.829 -> 315
09:46:28.829 -> 311
09:46:28.829 -> 306
09:46:28.829 -> 308
09:46:28.829 -> 311
09:46:28.869 -> 307
09:46:28.869 -> 305
09:46:28.869 -> 307
09:46:28.869 -> 311
09:46:28.869 -> 311
09:46:28.869 -> 311
09:46:28.869 -> 315
09:46:28.869 -> 316
09:46:28.909 -> 312
09:46:28.909 -> 312
09:46:28.909 -> 317
09:46:28.909 -> 317
09:46:28.909 -> 312
09:46:28.909 -> 315
09:46:28.909 -> 324
09:46:28.909 -> 327
09:46:28.949 -> 320
09:46:28.949 -> 319
09:46:28.949 -> 315
09:46:28.949 -> 308
09:46:28.949 -> 307
09:46:28.949 -> 312
09:46:28.949 -> 312
09:46:28.949 -> 307
09:46:28.989 -> 305
09:46:28.989 -> 311
09:46:28.989 -> 312
09:46:28.989 -> 307
09:46:28.989 -> 309
09:46:28.989 -> 312
09:46:28.989 -> 308
09:46:28.989 -> 304
09:46:29.029 -> 309
09:46:29.029 -> 321
09:46:29.029 -> 336
09:46:29.029 -> 356
09:46:29.029 -> 383
09:46:29.029 -> 385
09:46:29.029 -> 362
09:46:29.069 -> 337
09:46:29.069 -> 316
09:46:29.069 -> 285
09:46:29.069 -> 279
09:46:29.069 -> 301
09:46:29.069 -> 314
09:46:29.069 -> 317
09:46:29.069 -> 316
09:46:29.109 -> 316
09:46:29.109 -> 317
09:46:29.109 -> 317
09:46:29.109 -> 313
09:46:29.109 -> 313
09:46:29.109 -> 319
09:46:29.109 -> 320
09:46:29.109 -> 316
09:46:29.149 -> 316
09:46:29.149 -> 322
09:46:29.149 -> 322
09:46:29.149 -> 318
09:46:29.149 -> 319
09:46:29.149 -> 325
09:46:29.149 -> 326
09:46:29.149 -> 324
09:46:29.189 -> 327
09:46:29.189 -> 333
09:46:29.189 -> 329
09:46:29.189 -> 323
09:46:29.189 -> 326
09:46:29.189 -> 332
09:46:29.189 -> 334
09:46:29.229 -> 332
09:46:29.229 -> 336
09:46:29.229 -> 343
09:46:29.229 -> 342
09:46:29.229 -> 341
09:46:29.229 -> 347
09:46:29.229 -> 353
09:46:29.229 -> 352
09:46:29.268 -> 353
09:46:29.268 -> 360
09:46:29.268 -> 363
09:46:29.268 -> 364
09:46:29.268 -> 371
09:46:29.268 -> 375
09:46:29.268 -> 369
09:46:29.309 -> 364
09:46:29.309 -> 364
09:46:29.309 -> 360
09:46:29.309 -> 349
09:46:29.309 -> 341
09:46:29.309 -> 337
09:46:29.309 -> 329
09:46:29.309 -> 315
09:46:29.349 -> 310
09:46:29.349 -> 313
09:46:29.349 -> 309
09:46:29.349 -> 301
09:46:29.349 -> 301
09:46:29.349 -> 307
09:46:29.349 -> 304
09:46:29.389 -> 300
09:46:29.389 -> 300
09:46:29.389 -> 304
09:46:29.389 -> 303
09:46:29.389 -> 299
09:46:29.389 -> 300
09:46:29.389 -> 303
09:46:29.389 -> 302
09:46:29.429 -> 298
09:46:29.429 -> 301
09:46:29.429 -> 305
09:46:29.429 -> 303
09:46:29.429 -> 299
09:46:29.429 -> 300
09:46:29.429 -> 301
09:46:29.429 -> 299
09:46:29.469 -> 298
09:46:29.469 -> 303
09:46:29.469 -> 307
09:46:29.469 -> 303
09:46:29.469 -> 299
09:46:29.469 -> 302
09:46:29.469 -> 307
09:46:29.469 -> 304
09:46:29.509 -> 302
09:46:29.509 -> 305
09:46:29.509 -> 308
09:46:29.509 -> 305
09:46:29.509 -> 303
09:46:29.509 -> 306
09:46:29.509 -> 310
09:46:29.509 -> 305
09:46:29.549 -> 304
09:46:29.549 -> 309
09:46:29.549 -> 311
09:46:29.549 -> 307
09:46:29.549 -> 309
09:46:29.549 -> 315
09:46:29.549 -> 312
09:46:29.589 -> 306
09:46:29.589 -> 308
09:46:29.589 -> 314
09:46:29.589 -> 314
09:46:29.589 -> 307
09:46:29.589 -> 313
09:46:29.589 -> 315
09:46:29.589 -> 312
09:46:29.628 -> 312
09:46:29.628 -> 314
09:46:29.628 -> 310
09:46:29.628 -> 307
09:46:29.628 -> 311
09:46:29.628 -> 318
09:46:29.628 -> 315
09:46:29.628 -> 310
09:46:29.668 -> 314
09:46:29.668 -> 319
09:46:29.668 -> 316
09:46:29.668 -> 311
09:46:29.668 -> 315
09:46:29.668 -> 319
09:46:29.668 -> 314
09:46:29.668 -> 310
09:46:29.709 -> 314
09:46:29.709 -> 316
09:46:29.709 -> 314
09:46:29.709 -> 313
09:46:29.709 -> 316
09:46:29.709 -> 318
09:46:29.709 -> 313
09:46:29.749 -> 314
09:46:29.749 -> 321
09:46:29.749 -> 321
09:46:29.749 -> 315
09:46:29.749 -> 314
09:46:29.749 -> 320
09:46:29.749 -> 321
09:46:29.749 -> 315
09:46:29.789 -> 314
09:46:29.789 -> 318
09:46:29.789 -> 319
09:46:29.789 -> 315
09:46:29.789 -> 316
09:46:29.789 -> 321
09:46:29.789 -> 322
09:46:29.829 -> 318
09:46:29.829 -> 320
09:46:29.829 -> 323
09:46:29.829 -> 322
09:46:29.829 -> 318
09:46:29.829 -> 321
09:46:29.829 -> 326
09:46:29.829 -> 324
09:46:29.869 -> 320
09:46:29.869 -> 326
09:46:29.869 -> 331
09:46:29.869 -> 326
09:46:29.869 -> 324
09:46:29.869 -> 330
09:46:29.869 -> 333
09:46:29.909 -> 328
09:46:29.909 -> 328
09:46:29.909 -> 335
09:46:29.909 -> 342
09:46:29.909 -> 338
09:46:29.909 -> 331
09:46:29.909 -> 332
09:46:29.909 -> 330
09:46:29.949 -> 320
09:46:29.949 -> 325
09:46:29.949 -> 325
09:46:29.949 -> 319
09:46:29.949 -> 319
09:46:29.949 -> 323
09:46:29.949 -> 326
09:46:29.949 -> 324
09:46:29.989 -> 323
09:46:29.989 -> 325
09:46:29.989 -> 321
09:46:29.989 -> 314
09:46:29.989 -> 317
09:46:29.989 -> 332
09:46:29.989 -> 352
09:46:29.989 -> 378
09:46:30.029 -> 408
09:46:30.029 -> 414
09:46:30.029 -> 390
09:46:30.029 -> 360
09:46:30.029 -> 331
09:46:30.029 -> 296
09:46:30.029 -> 292
09:46:30.069 -> 312
09:46:30.069 -> 325
09:46:30.069 -> 330
09:46:30.069 -> 327
09:46:30.069 -> 324
09:46:30.069 -> 327
09:46:30.069 -> 331
09:46:30.069 -> 328
09:46:30.109 -> 327
09:46:30.109 -> 330
09:46:30.109 -> 331
09:46:30.109 -> 329
09:46:30.109 -> 327
09:46:30.109 -> 332
09:46:30.109 -> 337
09:46:30.109 -> 332
09:46:30.149 -> 330
09:46:30.149 -> 335
09:46:30.149 -> 339
09:46:30.149 -> 335
09:46:30.149 -> 334
09:46:30.149 -> 343
09:46:30.149 -> 349
09:46:30.149 -> 349
09:46:30.189 -> 351
09:46:30.189 -> 356
09:46:30.189 -> 357
09:46:30.189 -> 355
09:46:30.189 -> 356
09:46:30.189 -> 362
09:46:30.189 -> 364
09:46:30.189 -> 364
09:46:30.229 -> 369
09:46:30.229 -> 377
09:46:30.229 -> 378
09:46:30.229 -> 375
09:46:30.229 -> 381
09:46:30.229 -> 389
09:46:30.229 -> 388
09:46:30.269 -> 386
09:46:30.269 -> 391
09:46:30.269 -> 395
09:46:30.269 -> 390
09:46:30.269 -> 391
09:46:30.269 -> 389
09:46:30.269 -> 379
09:46:30.269 -> 368
09:46:30.309 -> 365
09:46:30.309 -> 358
09:46:30.309 -> 345
09:46:30.309 -> 335
09:46:30.309 -> 335
09:46:30.309 -> 333
09:46:30.309 -> 324
09:46:30.349 -> 323
09:46:30.349 -> 326
09:46:30.349 -> 324
09:46:30.349 -> 318
09:46:30.349 -> 315
09:46:30.349 -> 318
09:46:30.349 -> 319
09:46:30.349 -> 316
09:46:30.389 -> 317
09:46:30.389 -> 320
09:46:30.389 -> 320
09:46:30.389 -> 316
09:46:30.389 -> 316
09:46:30.389 -> 321
09:46:30.389 -> 322
09:46:30.429 -> 315
09:46:30.429 -> 316
09:46:30.429 -> 320
09:46:30.429 -> 318
09:46:30.429 -> 314
09:46:30.429 -> 316
09:46:30.429 -> 321
09:46:30.429 -> 319
09:46:30.469 -> 315
09:46:30.469 -> 316
09:46:30.469 -> 319
09:46:30.469 -> 318
09:46:30.469 -> 313
09:46:30.469 -> 315
09:46:30.469 -> 319
09:46:30.469 -> 316
09:46:30.509 -> 315
09:46:30.509 -> 319
09:46:30.509 -> 321
09:46:30.509 -> 315
09:46:30.509 -> 313
09:46:30.509 -> 320
09:46:30.509 -> 324
09:46:30.509 -> 320
09:46:30.549 -> 319
09:46:30.549 -> 321
09:46:30.549 -> 320
09:46:30.549 -> 316
09:46:30.549 -> 315
09:46:30.549 -> 321
09:46:30.549 -> 323
09:46:30.549 -> 318
09:46:30.589 -> 314
09:46:30.589 -> 318
09:46:30.589 -> 320
09:46:30.589 -> 318
09:46:30.589 -> 321
09:46:30.589 -> 319
09:46:30.589 -> 313
09:46:30.629 -> 314
09:46:30.629 -> 323
09:46:30.629 -> 322
09:46:30.629 -> 317
09:46:30.629 -> 317
09:46:30.629 -> 322
09:46:30.629 -> 321
09:46:30.629 -> 317
09:46:30.669 -> 319
09:46:30.669 -> 321
09:46:30.669 -> 319
09:46:30.669 -> 316
09:46:30.669 -> 318
09:46:30.669 -> 320
09:46:30.669 -> 320
09:46:30.669 -> 317
09:46:30.709 -> 318
09:46:30.709 -> 322
09:46:30.709 -> 318
09:46:30.709 -> 317
09:46:30.709 -> 320
09:46:30.709 -> 323
09:46:30.709 -> 319
09:46:30.709 -> 318
09:46:30.749 -> 320
09:46:30.749 -> 322
09:46:30.749 -> 318
09:46:30.749 -> 317
09:46:30.749 -> 320
09:46:30.749 -> 322
09:46:30.749 -> 318
09:46:30.789 -> 319
09:46:30.789 -> 324
09:46:30.789 -> 323
09:46:30.789 -> 317
09:46:30.789 -> 316
09:46:30.789 -> 322
09:46:30.789 -> 324
09:46:30.829 -> 319
09:46:30.829 -> 319
09:46:30.829 -> 324
09:46:30.829 -> 323
09:46:30.829 -> 319
09:46:30.829 -> 319
09:46:30.829 -> 325
09:46:30.829 -> 324
09:46:30.869 -> 320
09:46:30.869 -> 322
09:46:30.869 -> 328
09:46:30.869 -> 324
09:46:30.869 -> 318
09:46:30.869 -> 318
09:46:30.869 -> 324
09:46:30.869 -> 324
09:46:30.909 -> 320
09:46:30.909 -> 323
09:46:30.909 -> 325
09:46:30.909 -> 322
09:46:30.909 -> 320
09:46:30.909 -> 322
09:46:30.909 -> 326
09:46:30.949 -> 321
09:46:30.949 -> 323
09:46:30.949 -> 325
09:46:30.949 -> 321
09:46:30.949 -> 319
09:46:30.949 -> 324
09:46:30.949 -> 326
09:46:30.949 -> 320
09:46:30.989 -> 320
09:46:30.989 -> 326
09:46:30.989 -> 328
09:46:30.989 -> 321
09:46:30.989 -> 319
09:46:30.989 -> 329
09:46:30.989 -> 332
09:46:30.989 -> 326
09:46:31.029 -> 327
09:46:31.029 -> 333
09:46:31.029 -> 333
09:46:31.029 -> 327
09:46:31.029 -> 330
09:46:31.029 -> 337
09:46:31.029 -> 341
09:46:31.029 -> 338
09:46:31.069 -> 338
09:46:31.069 -> 337
09:46:31.069 -> 332
09:46:31.069 -> 323
09:46:31.069 -> 321
09:46:31.069 -> 327
09:46:31.069 -> 324
09:46:31.109 -> 320
09:46:31.109 -> 319
09:46:31.109 -> 322
09:46:31.109 -> 319
09:46:31.109 -> 317
09:46:31.109 -> 321
09:46:31.109 -> 324
09:46:31.109 -> 318
09:46:31.149 -> 313
09:46:31.149 -> 315
09:46:31.149 -> 324
09:46:31.149 -> 336
09:46:31.149 -> 362
09:46:31.149 -> 400
09:46:31.149 -> 419
09:46:31.149 -> 402
09:46:31.189 -> 374
09:46:31.189 -> 347
09:46:31.189 -> 309
09:46:31.189 -> 282
09:46:31.189 -> 299
09:46:31.189 -> 321
09:46:31.189 -> 325
09:46:31.189 -> 319
09:46:31.229 -> 320
09:46:31.229 -> 325
09:46:31.229 -> 326
09:46:31.229 -> 321
09:46:31.229 -> 320
09:46:31.229 -> 324
09:46:31.229 -> 326
09:46:31.229 -> 324
09:46:31.269 -> 326
09:46:31.269 -> 331
09:46:31.269 -> 327
09:46:31.269 -> 328
09:46:31.269 -> 334
09:46:31.269 -> 333
09:46:31.269 -> 326
09:46:31.309 -> 329
09:46:31.309 -> 335
09:46:31.309 -> 334
09:46:31.309 -> 331
09:46:31.309 -> 334
09:46:31.309 -> 340
09:46:31.309 -> 339
09:46:31.349 -> 337
09:46:31.349 -> 344
09:46:31.349 -> 351
09:46:31.349 -> 346
09:46:31.349 -> 344
09:46:31.349 -> 352
09:46:31.349 -> 357
09:46:31.349 -> 357
09:46:31.389 -> 359
09:46:31.389 -> 366
09:46:31.389 -> 368
09:46:31.389 -> 367
09:46:31.389 -> 368
09:46:31.389 -> 376
09:46:31.389 -> 380
09:46:31.389 -> 377
09:46:31.429 -> 376
09:46:31.429 -> 379
09:46:31.429 -> 378
09:46:31.429 -> 370
09:46:31.429 -> 362
09:46:31.429 -> 359
09:46:31.429 -> 349
09:46:31.469 -> 336
09:46:31.469 -> 330
09:46:31.469 -> 330
09:46:31.469 -> 322
09:46:31.469 -> 311
09:46:31.469 -> 309
09:46:31.469 -> 310
09:46:31.469 -> 306
09:46:31.509 -> 303
09:46:31.509 -> 304
09:46:31.509 -> 307
09:46:31.509 -> 304
09:46:31.509 -> 300
09:46:31.509 -> 303
09:46:31.509 -> 307
09:46:31.509 -> 301
09:46:31.549 -> 298
09:46:31.549 -> 302
09:46:31.549 -> 307
09:46:31.549 -> 302
09:46:31.549 -> 301
09:46:31.549 -> 304
09:46:31.549 -> 306
09:46:31.549 -> 302
09:46:31.589 -> 299
09:46:31.589 -> 304
09:46:31.589 -> 309
09:46:31.589 -> 304
09:46:31.589 -> 305
09:46:31.589 -> 306
09:46:31.589 -> 304
09:46:31.629 -> 304
09:46:31.629 -> 309
09:46:31.629 -> 310
09:46:31.629 -> 307
09:46:31.629 -> 306
09:46:31.629 -> 312
09:46:31.629 -> 313
09:46:31.629 -> 309
09:46:31.669 -> 307
09:46:31.669 -> 310
09:46:31.669 -> 310
09:46:31.669 -> 305
09:46:31.669 -> 306
09:46:31.669 -> 313
09:46:31.669 -> 312
09:46:31.669 -> 308
09:46:31.709 -> 310
09:46:31.709 -> 314
09:46:31.709 -> 312
09:46:31.709 -> 308
09:46:31.709 -> 310
09:46:31.709 -> 315
09:46:31.709 -> 312
09:46:31.709 -> 306
09:46:31.749 -> 311
09:46:31.749 -> 315
09:46:31.749 -> 311
09:46:31.749 -> 307
09:46:31.749 -> 310
09:46:31.749 -> 314
09:46:31.749 -> 311
09:46:31.789 -> 308
09:46:31.789 -> 312
09:46:31.789 -> 315
09:46:31.789 -> 312
09:46:31.789 -> 311
09:46:31.789 -> 316
09:46:31.789 -> 318
09:46:31.789 -> 312
09:46:31.829 -> 310
09:46:31.829 -> 315
09:46:31.829 -> 317
09:46:31.829 -> 312
09:46:31.829 -> 311
09:46:31.829 -> 317
09:46:31.829 -> 317
09:46:31.869 -> 313
09:46:31.869 -> 313
09:46:31.869 -> 317
09:46:31.869 -> 319
09:46:31.869 -> 317
09:46:31.869 -> 319
09:46:31.869 -> 320
09:46:31.869 -> 318
09:46:31.909 -> 311
09:46:31.909 -> 313
09:46:31.909 -> 319
09:46:31.909 -> 318
09:46:31.909 -> 316
09:46:31.909 -> 318
09:46:31.909 -> 322
09:46:31.949 -> 314
09:46:31.949 -> 318
09:46:31.949 -> 322
09:46:31.949 -> 319
09:46:31.949 -> 317
09:46:31.949 -> 319
09:46:31.949 -> 320
09:46:31.949 -> 316
09:46:31.989 -> 314
09:46:31.989 -> 320
09:46:31.989 -> 324
09:46:31.989 -> 322
09:46:31.989 -> 317
09:46:31.989 -> 319
09:46:31.989 -> 321
09:46:31.989 -> 319
09:46:32.029 -> 320
09:46:32.029 -> 325
09:46:32.029 -> 325
09:46:32.029 -> 319
09:46:32.029 -> 319
09:46:32.029 -> 323
09:46:32.029 -> 322
09:46:32.029 -> 319
09:46:32.069 -> 320
09:46:32.069 -> 327
09:46:32.069 -> 328
09:46:32.069 -> 325
09:46:32.069 -> 328
09:46:32.069 -> 336
09:46:32.069 -> 336
09:46:32.069 -> 334
09:46:32.109 -> 335
09:46:32.109 -> 338
09:46:32.109 -> 338
09:46:32.109 -> 337
09:46:32.109 -> 338
09:46:32.109 -> 340
09:46:32.109 -> 335
09:46:32.149 -> 327
09:46:32.149 -> 323
09:46:32.149 -> 323
09:46:32.149 -> 319
09:46:32.149 -> 314
09:46:32.149 -> 316
09:46:32.149 -> 319
09:46:32.149 -> 317
09:46:32.189 -> 316
09:46:32.189 -> 321
09:46:32.189 -> 322
09:46:32.189 -> 317
09:46:32.189 -> 311
09:46:32.189 -> 314
09:46:32.189 -> 324
09:46:32.189 -> 338
09:46:32.229 -> 365
09:46:32.229 -> 404
09:46:32.229 -> 418
09:46:32.229 -> 396
09:46:32.229 -> 364
09:46:32.229 -> 335
09:46:32.229 -> 296
09:46:32.229 -> 279
09:46:32.269 -> 303
09:46:32.269 -> 325
09:46:32.269 -> 319
09:46:32.269 -> 320
09:46:32.269 -> 324
09:46:32.269 -> 324
09:46:32.269 -> 320
09:46:32.309 -> 323
09:46:32.309 -> 329
09:46:32.309 -> 326
09:46:32.309 -> 322
09:46:32.309 -> 324
09:46:32.309 -> 327
09:46:32.309 -> 325
09:46:32.309 -> 322
09:46:32.349 -> 327
09:46:32.349 -> 333
09:46:32.349 -> 330
09:46:32.349 -> 327
09:46:32.349 -> 332
09:46:32.349 -> 337
09:46:32.349 -> 334
09:46:32.389 -> 332
09:46:32.389 -> 338
09:46:32.389 -> 344
09:46:32.389 -> 339
09:46:32.389 -> 336
09:46:32.389 -> 343
09:46:32.389 -> 350
09:46:32.389 -> 348
09:46:32.429 -> 346
09:46:32.429 -> 352
09:46:32.429 -> 357
09:46:32.429 -> 357
09:46:32.429 -> 359
09:46:32.429 -> 366
09:46:32.429 -> 371
09:46:32.469 -> 370
09:46:32.469 -> 373
09:46:32.469 -> 381
09:46:32.469 -> 382
09:46:32.469 -> 375
09:46:32.469 -> 377
09:46:32.469 -> 383
09:46:32.469 -> 380
09:46:32.509 -> 367
09:46:32.509 -> 359
09:46:32.509 -> 357
09:46:32.509 -> 349
09:46:32.509 -> 334
09:46:32.509 -> 327
09:46:32.509 -> 325
09:46:32.509 -> 319
09:46:32.548 -> 312
09:46:32.548 -> 311
09:46:32.548 -> 311
09:46:32.548 -> 306
09:46:32.548 -> 302
09:46:32.548 -> 305
09:46:32.548 -> 308
09:46:32.548 -> 304
09:46:32.589 -> 301
09:46:32.589 -> 304
09:46:32.589 -> 307
09:46:32.589 -> 302
09:46:32.589 -> 301
09:46:32.589 -> 307
09:46:32.589 -> 302
09:46:32.589 -> 299
09:46:32.629 -> 303
09:46:32.629 -> 307
09:46:32.629 -> 303
09:46:32.629 -> 301
09:46:32.629 -> 305
09:46:32.629 -> 307
09:46:32.629 -> 304
09:46:32.669 -> 302
09:46:32.669 -> 306
09:46:32.669 -> 306
09:46:32.669 -> 301
09:46:32.669 -> 302
09:46:32.669 -> 308
09:46:32.669 -> 308
09:46:32.669 -> 304
09:46:32.709 -> 304
09:46:32.709 -> 309
09:46:32.709 -> 310
09:46:32.709 -> 307
09:46:32.709 -> 308
09:46:32.709 -> 312
09:46:32.709 -> 311
09:46:32.709 -> 310
09:46:32.749 -> 310
09:46:32.749 -> 314
09:46:32.749 -> 310
09:46:32.749 -> 305
09:46:32.749 -> 308
09:46:32.749 -> 312
09:46:32.749 -> 311
09:46:32.749 -> 308
09:46:32.789 -> 308
09:46:32.789 -> 311
09:46:32.789 -> 309
09:46:32.789 -> 308
09:46:32.789 -> 311
09:46:32.789 -> 313
09:46:32.789 -> 312
09:46:32.828 -> 311
09:46:32.828 -> 315
09:46:32.828 -> 315
09:46:32.828 -> 308
09:46:32.828 -> 306
09:46:32.828 -> 313
09:46:32.828 -> 313
09:46:32.828 -> 311
09:46:32.869 -> 310
09:46:32.869 -> 316
09:46:32.869 -> 318
09:46:32.869 -> 312
09:46:32.869 -> 309
09:46:32.869 -> 314
09:46:32.869 -> 317
09:46:32.904 -> 314
09:46:32.904 -> 315
09:46:32.904 -> 318
09:46:32.904 -> 314
09:46:32.904 -> 311
09:46:32.904 -> 315
09:46:32.904 -> 320
09:46:32.939 -> 313
09:46:32.939 -> 316
09:46:32.939 -> 322
09:46:32.939 -> 318
09:46:32.939 -> 312
09:46:32.939 -> 313
09:46:32.939 -> 318
09:46:32.979 -> 316
09:46:32.979 -> 314
09:46:32.979 -> 317
09:46:32.979 -> 320
09:46:32.979 -> 318
09:46:32.979 -> 314
09:46:32.979 -> 319
09:46:32.979 -> 323
09:46:33.019 -> 319
09:46:33.019 -> 316
09:46:33.019 -> 319
09:46:33.019 -> 322
09:46:33.019 -> 317
09:46:33.019 -> 315
09:46:33.019 -> 320
09:46:33.019 -> 323
09:46:33.059 -> 319
09:46:33.059 -> 316
09:46:33.059 -> 322
09:46:33.059 -> 324
09:46:33.059 -> 318
09:46:33.059 -> 316
09:46:33.059 -> 322
09:46:33.099 -> 326
09:46:33.099 -> 324
09:46:33.099 -> 328
09:46:33.099 -> 336
09:46:33.099 -> 338
09:46:33.099 -> 334
09:46:33.099 -> 333
09:46:33.139 -> 340
09:46:33.139 -> 342
09:46:33.139 -> 337
09:46:33.139 -> 336
09:46:33.139 -> 335
09:46:33.139 -> 329
09:46:33.139 -> 322
09:46:33.139 -> 322
09:46:33.179 -> 322
09:46:33.179 -> 317
09:46:33.179 -> 313
09:46:33.179 -> 315
09:46:33.179 -> 320
09:46:33.179 -> 319
09:46:33.179 -> 315
09:46:33.179 -> 317
09:46:33.219 -> 320
09:46:33.219 -> 318
09:46:33.219 -> 314
09:46:33.219 -> 319
09:46:33.219 -> 331
09:46:33.219 -> 351
09:46:33.219 -> 383
09:46:33.259 -> 416
09:46:33.259 -> 412
09:46:33.259 -> 379
09:46:33.259 -> 345
09:46:33.259 -> 282
09:46:33.259 -> 287
09:46:33.259 -> 312
09:46:33.259 -> 323
09:46:33.299 -> 323
09:46:33.299 -> 322
09:46:33.299 -> 323
09:46:33.299 -> 326
09:46:33.299 -> 327
09:46:33.299 -> 324
09:46:33.299 -> 323
09:46:33.299 -> 327
09:46:33.338 -> 325
09:46:33.338 -> 322
09:46:33.338 -> 323
09:46:33.338 -> 329
09:46:33.338 -> 328
09:46:33.338 -> 325
09:46:33.338 -> 329
09:46:33.338 -> 334
09:46:33.379 -> 333
09:46:33.379 -> 330
09:46:33.379 -> 333
09:46:33.379 -> 339
09:46:33.379 -> 338
09:46:33.379 -> 336
09:46:33.379 -> 339
09:46:33.419 -> 345
09:46:33.419 -> 343
09:46:33.419 -> 340
09:46:33.419 -> 344
09:46:33.419 -> 350
09:46:33.419 -> 351
09:46:33.419 -> 350
09:46:33.419 -> 358
09:46:33.459 -> 361
09:46:33.459 -> 359
09:46:33.459 -> 362
09:46:33.459 -> 372
09:46:33.459 -> 378
09:46:33.459 -> 376
09:46:33.459 -> 375
09:46:33.459 -> 382
09:46:33.499 -> 380
09:46:33.499 -> 375
09:46:33.499 -> 377
09:46:33.499 -> 383
09:46:33.499 -> 381
09:46:33.499 -> 368
09:46:33.499 -> 359
09:46:33.499 -> 352
09:46:33.534 -> 344
09:46:33.534 -> 331
09:46:33.534 -> 326
09:46:33.534 -> 324
09:46:33.534 -> 319
09:46:33.534 -> 313
09:46:33.569 -> 312
09:46:33.569 -> 308
09:46:33.569 -> 302
09:46:33.569 -> 300
09:46:33.569 -> 303
09:46:33.569 -> 305
09:46:33.569 -> 300
09:46:33.608 -> 301
09:46:33.608 -> 305
09:46:33.608 -> 302
09:46:33.608 -> 299
09:46:33.608 -> 304
09:46:33.608 -> 307
09:46:33.608 -> 301
09:46:33.608 -> 299
09:46:33.649 -> 305
09:46:33.649 -> 307
09:46:33.649 -> 301
09:46:33.649 -> 301
09:46:33.649 -> 307
09:46:33.649 -> 307
09:46:33.649 -> 301
09:46:33.689 -> 300
09:46:33.689 -> 307
09:46:33.689 -> 311
09:46:33.689 -> 305
09:46:33.689 -> 302
09:46:33.689 -> 307
09:46:33.689 -> 309
09:46:33.689 -> 305
09:46:33.728 -> 305
09:46:33.728 -> 311
09:46:33.728 -> 312
09:46:33.728 -> 307
09:46:33.728 -> 307
09:46:33.728 -> 312
09:46:33.728 -> 310
09:46:33.728 -> 305
09:46:33.769 -> 308
09:46:33.769 -> 314
09:46:33.769 -> 311
09:46:33.769 -> 306
09:46:33.769 -> 310
09:46:33.769 -> 315
09:46:33.769 -> 311
09:46:33.769 -> 307
09:46:33.809 -> 310
09:46:33.809 -> 315
09:46:33.809 -> 310
09:46:33.809 -> 306
09:46:33.809 -> 310
09:46:33.809 -> 314
09:46:33.809 -> 310
09:46:33.849 -> 308
09:46:33.849 -> 310
09:46:33.849 -> 312
09:46:33.849 -> 310
09:46:33.849 -> 311
09:46:33.849 -> 315
09:46:33.849 -> 315
09:46:33.849 -> 310
09:46:33.888 -> 311
09:46:33.888 -> 316
09:46:33.888 -> 318
09:46:33.888 -> 313
09:46:33.888 -> 313
09:46:33.888 -> 316
09:46:33.888 -> 317
09:46:33.929 -> 314
09:46:33.929 -> 314
09:46:33.929 -> 316
09:46:33.929 -> 313
09:46:33.929 -> 317
09:46:33.929 -> 320
09:46:33.929 -> 319
09:46:33.929 -> 313
09:46:33.969 -> 317
09:46:33.969 -> 321
09:46:33.969 -> 319
09:46:33.969 -> 314
09:46:33.969 -> 316
09:46:33.969 -> 321
09:46:33.969 -> 319
09:46:34.009 -> 314
09:46:34.009 -> 317
09:46:34.009 -> 321
09:46:34.009 -> 318
09:46:34.009 -> 314
09:46:34.009 -> 318
09:46:34.009 -> 323
09:46:34.009 -> 320
09:46:34.049 -> 317
09:46:34.049 -> 320
09:46:34.049 -> 321
09:46:34.049 -> 316
09:46:34.049 -> 315
09:46:34.049 -> 322
09:46:34.049 -> 325
09:46:34.049 -> 320
09:46:34.089 -> 318
09:46:34.089 -> 321
09:46:34.089 -> 324
09:46:34.089 -> 321
09:46:34.089 -> 326
09:46:34.089 -> 335
09:46:34.089 -> 337
09:46:34.089 -> 335
09:46:34.129 -> 335
09:46:34.129 -> 337
09:46:34.129 -> 341
09:46:34.129 -> 338
09:46:34.129 -> 335
09:46:34.129 -> 339
09:46:34.129 -> 334
09:46:34.129 -> 326
09:46:34.169 -> 322
09:46:34.169 -> 323
09:46:34.169 -> 321
09:46:34.169 -> 315
09:46:34.169 -> 316
09:46:34.169 -> 322
09:46:34.169 -> 321
09:46:34.209 -> 314
09:46:34.209 -> 316
09:46:34.209 -> 323
09:46:34.209 -> 318
09:46:34.209 -> 309
09:46:34.209 -> 314
09:46:34.209 -> 330
09:46:34.209 -> 347
09:46:34.249 -> 374
09:46:34.249 -> 409
09:46:34.249 -> 413
09:46:34.249 -> 384
09:46:34.249 -> 351
09:46:34.249 -> 283
09:46:34.249 -> 278
09:46:34.249 -> 304
09:46:34.288 -> 323
09:46:34.288 -> 325
09:46:34.288 -> 320
09:46:34.288 -> 320
09:46:34.288 -> 326
09:46:34.288 -> 327
09:46:34.288 -> 320
09:46:34.288 -> 321
09:46:34.328 -> 327
09:46:34.328 -> 329
09:46:34.328 -> 325
09:46:34.328 -> 326
09:46:34.328 -> 331
09:46:34.328 -> 332
09:46:34.328 -> 327
09:46:34.369 -> 329
09:46:34.369 -> 335
09:46:34.369 -> 332
09:46:34.369 -> 328
09:46:34.369 -> 330
09:46:34.369 -> 338
09:46:34.369 -> 338
09:46:34.369 -> 333
09:46:34.409 -> 336
09:46:34.409 -> 343
09:46:34.409 -> 343
09:46:34.409 -> 339
09:46:34.409 -> 342
09:46:34.409 -> 349
09:46:34.409 -> 351
09:46:34.449 -> 352
09:46:34.449 -> 357
09:46:34.449 -> 361
09:46:34.449 -> 358
09:46:34.449 -> 359
09:46:34.449 -> 369
09:46:34.449 -> 377
09:46:34.449 -> 373
09:46:34.489 -> 374
09:46:34.489 -> 383
09:46:34.489 -> 386
09:46:34.489 -> 382
09:46:34.489 -> 377
09:46:34.489 -> 380
09:46:34.489 -> 379
09:46:34.529 -> 367
09:46:34.529 -> 361
09:46:34.529 -> 357
09:46:34.529 -> 346
09:46:34.529 -> 332
09:46:34.529 -> 324
09:46:34.529 -> 324
09:46:34.529 -> 319
09:46:34.569 -> 310
09:46:34.569 -> 306
09:46:34.569 -> 309
09:46:34.569 -> 308
09:46:34.569 -> 304
09:46:34.569 -> 303
09:46:34.569 -> 306
09:46:34.569 -> 304
09:46:34.609 -> 302
09:46:34.609 -> 308
09:46:34.609 -> 305
09:46:34.609 -> 301
09:46:34.609 -> 301
09:46:34.609 -> 305
09:46:34.609 -> 304
09:46:34.609 -> 301
09:46:34.649 -> 304
09:46:34.649 -> 307
09:46:34.649 -> 304
09:46:34.649 -> 299
09:46:34.649 -> 302
09:46:34.649 -> 308
09:46:34.649 -> 305
09:46:34.649 -> 304
09:46:34.689 -> 309
09:46:34.689 -> 310
09:46:34.689 -> 306
09:46:34.689 -> 303
09:46:34.689 -> 308
09:46:34.689 -> 313
09:46:34.689 -> 309
09:46:34.729 -> 307
09:46:34.729 -> 313
09:46:34.729 -> 315
09:46:34.729 -> 309
09:46:34.729 -> 307
09:46:34.729 -> 312
09:46:34.729 -> 312
09:46:34.729 -> 309
09:46:34.769 -> 309
09:46:34.769 -> 315
09:46:34.769 -> 314
09:46:34.769 -> 310
09:46:34.769 -> 311
09:46:34.769 -> 317
09:46:34.769 -> 316
09:46:34.769 -> 310
09:46:34.809 -> 308
09:46:34.809 -> 314
09:46:34.809 -> 315
09:46:34.809 -> 312
09:46:34.809 -> 313
09:46:34.809 -> 316
09:46:34.809 -> 311
09:46:34.809 -> 308
09:46:34.849 -> 314
09:46:34.849 -> 320
09:46:34.849 -> 316
09:46:34.849 -> 312
09:46:34.849 -> 315
09:46:34.849 -> 316
09:46:34.849 -> 311
09:46:34.889 -> 310
09:46:34.889 -> 314
09:46:34.889 -> 318
09:46:34.889 -> 315
09:46:34.889 -> 314
09:46:34.889 -> 317
09:46:34.889 -> 316
09:46:34.889 -> 310
09:46:34.929 -> 312
09:46:34.929 -> 318
09:46:34.929 -> 318
09:46:34.929 -> 316
09:46:34.929 -> 321
09:46:34.929 -> 324
09:46:34.929 -> 320
09:46:34.968 -> 318
09:46:34.968 -> 320
09:46:34.968 -> 320
09:46:34.968 -> 315
09:46:34.968 -> 316
09:46:34.968 -> 324
09:46:34.968 -> 324
09:46:34.968 -> 317
09:46:35.009 -> 315
09:46:35.009 -> 320
09:46:35.009 -> 321
09:46:35.009 -> 317
09:46:35.009 -> 319
09:46:35.009 -> 324
09:46:35.009 -> 321
09:46:35.048 -> 318
09:46:35.048 -> 321
09:46:35.048 -> 325
09:46:35.048 -> 322
09:46:35.048 -> 320
09:46:35.048 -> 321
09:46:35.048 -> 324
09:46:35.048 -> 321
09:46:35.089 -> 318
09:46:35.089 -> 321
09:46:35.089 -> 326
09:46:35.089 -> 324
09:46:35.089 -> 323
09:46:35.089 -> 331
09:46:35.089 -> 334
09:46:35.089 -> 330
09:46:35.129 -> 330
09:46:35.129 -> 336
09:46:35.129 -> 341
09:46:35.129 -> 340
09:46:35.129 -> 340
09:46:35.129 -> 341
09:46:35.129 -> 338
09:46:35.129 -> 330
09:46:35.169 -> 325
09:46:35.169 -> 326
09:46:35.169 -> 321
09:46:35.169 -> 315
09:46:35.169 -> 314
09:46:35.169 -> 319
09:46:35.169 -> 320
09:46:35.169 -> 316
09:46:35.209 -> 317
09:46:35.209 -> 321
09:46:35.209 -> 318
09:46:35.209 -> 311
09:46:35.209 -> 312
09:46:35.209 -> 325
09:46:35.209 -> 339
09:46:35.249 -> 362
09:46:35.249 -> 394
09:46:35.249 -> 410
09:46:35.249 -> 385
09:46:35.249 -> 353
09:46:35.249 -> 296
09:46:35.249 -> 274
09:46:35.249 -> 290
09:46:35.288 -> 316
09:46:35.288 -> 325
09:46:35.288 -> 321
09:46:35.288 -> 319
09:46:35.288 -> 323
09:46:35.288 -> 328
09:46:35.288 -> 327
09:46:35.288 -> 326
09:46:35.328 -> 330
09:46:35.328 -> 330
09:46:35.328 -> 327
09:46:35.328 -> 330
09:46:35.328 -> 326
09:46:35.328 -> 323
09:46:35.328 -> 321
09:46:35.369 -> 323
09:46:35.369 -> 328
09:46:35.369 -> 331
09:46:35.369 -> 330
09:46:35.369 -> 333
09:46:35.369 -> 337
09:46:35.369 -> 337
09:46:35.369 -> 335
09:46:35.409 -> 337
09:46:35.409 -> 339
09:46:35.409 -> 339
09:46:35.409 -> 337
09:46:35.409 -> 343
09:46:35.409 -> 350
09:46:35.409 -> 347
09:46:35.449 -> 346
09:46:35.449 -> 351
09:46:35.449 -> 359
09:46:35.449 -> 359
09:46:35.449 -> 356
09:46:35.449 -> 363
09:46:35.449 -> 370
09:46:35.449 -> 372
09:46:35.489 -> 372
09:46:35.489 -> 377
09:46:35.489 -> 382
09:46:35.489 -> 376
09:46:35.489 -> 375
09:46:35.489 -> 378
09:46:35.489 -> 377
09:46:35.489 -> 368
09:46:35.529 -> 358
09:46:35.529 -> 355
09:46:35.529 -> 350
09:46:35.529 -> 338
09:46:35.529 -> 329
09:46:35.529 -> 327
09:46:35.529 -> 324
09:46:35.569 -> 318
09:46:35.569 -> 304
09:46:35.569 -> 303
09:46:35.569 -> 306
09:46:35.569 -> 302
09:46:35.569 -> 299
09:46:35.569 -> 301
09:46:35.569 -> 300
09:46:35.609 -> 298
09:46:35.609 -> 304
09:46:35.609 -> 306
09:46:35.609 -> 302
09:46:35.609 -> 302
09:46:35.609 -> 305
09:46:35.609 -> 304
09:46:35.609 -> 299
09:46:35.649 -> 300
09:46:35.649 -> 305
09:46:35.649 -> 305
09:46:35.649 -> 303
09:46:35.649 -> 305
09:46:35.649 -> 308
09:46:35.649 -> 304
09:46:35.649 -> 303
09:46:35.689 -> 308
09:46:35.689 -> 310
09:46:35.689 -> 306
09:46:35.689 -> 305
09:46:35.689 -> 312
09:46:35.689 -> 321
09:46:35.689 -> 317
09:46:35.689 -> 303
09:46:35.729 -> 304
09:46:35.729 -> 306
09:46:35.729 -> 304
09:46:35.729 -> 306
09:46:35.729 -> 310
09:46:35.729 -> 312
09:46:35.729 -> 311
09:46:35.769 -> 311
09:46:35.769 -> 312
09:46:35.769 -> 311
09:46:35.769 -> 309
09:46:35.769 -> 309
09:46:35.769 -> 313
09:46:35.769 -> 313
09:46:35.769 -> 310
09:46:35.809 -> 310
09:46:35.809 -> 315
09:46:35.809 -> 313
09:46:35.809 -> 306
09:46:35.809 -> 306
09:46:35.809 -> 313
09:46:35.809 -> 313
09:46:35.809 -> 309
09:46:35.849 -> 310
09:46:35.849 -> 314
09:46:35.849 -> 313
09:46:35.849 -> 310
09:46:35.849 -> 312
09:46:35.849 -> 315
09:46:35.849 -> 315
09:46:35.849 -> 311
09:46:35.889 -> 315
09:46:35.889 -> 319
09:46:35.889 -> 316
09:46:35.889 -> 322
09:46:35.889 -> 321
09:46:35.889 -> 316
09:46:35.889 -> 313
09:46:35.929 -> 315
09:46:35.929 -> 323
09:46:35.929 -> 321
09:46:35.929 -> 321
09:46:35.929 -> 327
09:46:35.929 -> 333
09:46:35.929 -> 332
09:46:35.969 -> 331
09:46:35.969 -> 332
09:46:35.969 -> 331
09:46:35.969 -> 319
09:46:35.969 -> 312
09:46:35.969 -> 315
09:46:35.969 -> 318
09:46:35.969 -> 315
09:46:36.009 -> 316
09:46:36.009 -> 319
09:46:36.009 -> 318
09:46:36.009 -> 314
09:46:36.009 -> 316
09:46:36.009 -> 323
09:46:36.009 -> 323
09:46:36.009 -> 320
09:46:36.049 -> 323
09:46:36.049 -> 317
09:46:36.049 -> 317
09:46:36.049 -> 339
09:46:36.049 -> 371
09:46:36.049 -> 394
09:46:36.049 -> 383
09:46:36.089 -> 358
09:46:36.089 -> 339
09:46:36.089 -> 317
09:46:36.089 -> 280
09:46:36.089 -> 273
09:46:36.089 -> 303
09:46:36.089 -> 326
09:46:36.089 -> 324
09:46:36.129 -> 320
09:46:36.129 -> 327
09:46:36.129 -> 330
09:46:36.129 -> 327
09:46:36.129 -> 324
09:46:36.129 -> 328
09:46:36.129 -> 335
09:46:36.129 -> 331
09:46:36.169 -> 327
09:46:36.169 -> 332
09:46:36.169 -> 342
09:46:36.169 -> 334
09:46:36.169 -> 322
09:46:36.169 -> 327
09:46:36.169 -> 332
09:46:36.169 -> 330
09:46:36.209 -> 331
09:46:36.209 -> 337
09:46:36.209 -> 338
09:46:36.209 -> 335
09:46:36.209 -> 336
09:46:36.209 -> 342
09:46:36.209 -> 345
09:46:36.249 -> 343
09:46:36.249 -> 345
09:46:36.249 -> 349
09:46:36.249 -> 350
09:46:36.249 -> 350
09:46:36.249 -> 360
09:46:36.249 -> 363
09:46:36.249 -> 361
09:46:36.289 -> 367
09:46:36.289 -> 383
09:46:36.289 -> 378
09:46:36.289 -> 366
09:46:36.289 -> 371
09:46:36.289 -> 378
09:46:36.289 -> 376
09:46:36.289 -> 374
09:46:36.338 -> 378
09:46:36.338 -> 380
09:46:36.338 -> 369
09:46:36.338 -> 360
09:46:36.338 -> 357
09:46:36.338 -> 351
09:46:36.338 -> 338
09:46:36.338 -> 330
09:46:36.338 -> 331
09:46:36.379 -> 324
09:46:36.379 -> 313
09:46:36.379 -> 308
09:46:36.379 -> 312
09:46:36.379 -> 313
09:46:36.379 -> 314
09:46:36.379 -> 306
09:46:36.379 -> 301
09:46:36.419 -> 303
09:46:36.419 -> 301
09:46:36.419 -> 304
09:46:36.419 -> 308
09:46:36.419 -> 307
09:46:36.419 -> 303
09:46:36.419 -> 304
09:46:36.419 -> 307
09:46:36.459 -> 305
09:46:36.459 -> 301
09:46:36.459 -> 303
09:46:36.459 -> 307
09:46:36.459 -> 305
09:46:36.459 -> 302
09:46:36.459 -> 306
09:46:36.508 -> 312
09:46:36.508 -> 310
09:46:36.508 -> 307
09:46:36.508 -> 312
09:46:36.508 -> 322
09:46:36.508 -> 312
09:46:36.508 -> 298
09:46:36.508 -> 304
09:46:36.508 -> 311
09:46:36.508 -> 308
09:46:36.549 -> 306
09:46:36.549 -> 308
09:46:36.549 -> 315
09:46:36.549 -> 311
09:46:36.549 -> 308
09:46:36.549 -> 313
09:46:36.549 -> 317
09:46:36.589 -> 313
09:46:36.589 -> 311
09:46:36.589 -> 315
09:46:36.589 -> 314
09:46:36.589 -> 312
09:46:36.589 -> 316
09:46:36.589 -> 317
09:46:36.589 -> 318
09:46:36.629 -> 320
09:46:36.629 -> 313
09:46:36.629 -> 311
09:46:36.629 -> 310
09:46:36.629 -> 316
09:46:36.629 -> 321
09:46:36.629 -> 322
09:46:36.629 -> 318
09:46:36.669 -> 319
09:46:36.669 -> 328
09:46:36.669 -> 328
09:46:36.669 -> 323
09:46:36.669 -> 324
09:46:36.669 -> 323
09:46:36.669 -> 314
09:46:36.669 -> 307
09:46:36.709 -> 309
09:46:36.709 -> 314
09:46:36.709 -> 315
09:46:36.709 -> 312
09:46:36.709 -> 313
09:46:36.709 -> 318
09:46:36.709 -> 315
09:46:36.749 -> 318
09:46:36.749 -> 322
09:46:36.749 -> 315
09:46:36.749 -> 307
09:46:36.749 -> 305
09:46:36.749 -> 314
09:46:36.749 -> 330
09:46:36.749 -> 348
09:46:36.789 -> 371
09:46:36.789 -> 390
09:46:36.789 -> 381
09:46:36.789 -> 354
09:46:36.789 -> 326
09:46:36.789 -> 298
09:46:36.789 -> 275
09:46:36.789 -> 279
09:46:36.828 -> 304
09:46:36.828 -> 321
09:46:36.828 -> 321
09:46:36.828 -> 320
09:46:36.828 -> 323
09:46:36.828 -> 326
09:46:36.828 -> 327
09:46:36.828 -> 330
09:46:36.869 -> 332
09:46:36.869 -> 323
09:46:36.869 -> 319
09:46:36.869 -> 320
09:46:36.869 -> 325
09:46:36.869 -> 330
09:46:36.869 -> 329
09:46:36.869 -> 325
09:46:36.908 -> 329
09:46:36.908 -> 336
09:46:36.908 -> 334
09:46:36.908 -> 330
09:46:36.908 -> 334
09:46:36.908 -> 338
09:46:36.908 -> 337
09:46:36.949 -> 340
09:46:36.949 -> 344
09:46:36.949 -> 341
09:46:36.949 -> 341
09:46:36.949 -> 348
09:46:36.949 -> 362
09:46:36.949 -> 355
09:46:36.989 -> 345
09:46:36.989 -> 349
09:46:36.989 -> 358
09:46:36.989 -> 361
09:46:36.989 -> 362
09:46:36.989 -> 370
09:46:36.989 -> 376
09:46:36.989 -> 372
09:46:37.029 -> 371
09:46:37.029 -> 375
09:46:37.029 -> 377
09:46:37.029 -> 375
09:46:37.029 -> 371
09:46:37.029 -> 368
09:46:37.029 -> 361
09:46:37.029 -> 348
09:46:37.069 -> 341
09:46:37.069 -> 338
09:46:37.069 -> 328
09:46:37.069 -> 321
09:46:37.069 -> 328
09:46:37.069 -> 319
09:46:37.069 -> 308
09:46:37.109 -> 306
09:46:37.109 -> 307
09:46:37.109 -> 309
09:46:37.109 -> 308
09:46:37.109 -> 307
09:46:37.109 -> 310
09:46:37.109 -> 311
09:46:37.109 -> 306
09:46:37.149 -> 303
09:46:37.149 -> 310
09:46:37.149 -> 316
09:46:37.149 -> 307
09:46:37.149 -> 302
09:46:37.149 -> 306
09:46:37.149 -> 312
09:46:37.149 -> 309
09:46:37.189 -> 305
09:46:37.189 -> 307
09:46:37.189 -> 310
09:46:37.189 -> 309
09:46:37.189 -> 312
09:46:37.189 -> 314
09:46:37.189 -> 306
09:46:37.189 -> 302
09:46:37.228 -> 306
09:46:37.228 -> 312
09:46:37.228 -> 314
09:46:37.228 -> 310
09:46:37.228 -> 304
09:46:37.228 -> 308
09:46:37.228 -> 310
09:46:37.268 -> 308
09:46:37.268 -> 315
09:46:37.268 -> 314
09:46:37.268 -> 309
09:46:37.268 -> 309
09:46:37.268 -> 312
09:46:37.268 -> 312
09:46:37.268 -> 310
09:46:37.309 -> 314
09:46:37.309 -> 317
09:46:37.309 -> 314
09:46:37.309 -> 312
09:46:37.309 -> 315
09:46:37.309 -> 319
09:46:37.309 -> 319
09:46:37.309 -> 316
09:46:37.349 -> 309
09:46:37.349 -> 311
09:46:37.349 -> 313
09:46:37.349 -> 312
09:46:37.349 -> 315
09:46:37.349 -> 320
09:46:37.349 -> 319
09:46:37.349 -> 320
09:46:37.389 -> 326
09:46:37.389 -> 329
09:46:37.389 -> 322
09:46:37.389 -> 318
09:46:37.389 -> 320
09:46:37.389 -> 319
09:46:37.389 -> 313
09:46:37.389 -> 309
09:46:37.428 -> 314
09:46:37.428 -> 317
09:46:37.428 -> 312
09:46:37.428 -> 310
09:46:37.428 -> 314
09:46:37.428 -> 316
09:46:37.428 -> 313
09:46:37.469 -> 314
09:46:37.469 -> 320
09:46:37.469 -> 319
09:46:37.469 -> 310
09:46:37.469 -> 314
09:46:37.469 -> 332
09:46:37.469 -> 340
09:46:37.509 -> 357
09:46:37.509 -> 385
09:46:37.509 -> 393
09:46:37.509 -> 376
09:46:37.509 -> 345
09:46:37.509 -> 316
09:46:37.509 -> 284
09:46:37.509 -> 276
09:46:37.549 -> 297
09:46:37.549 -> 316
09:46:37.549 -> 320
09:46:37.549 -> 319
09:46:37.549 -> 319
09:46:37.549 -> 324
09:46:37.549 -> 327
09:46:37.549 -> 324
09:46:37.589 -> 322
09:46:37.589 -> 328
09:46:37.589 -> 333
09:46:37.589 -> 323
09:46:37.589 -> 326
09:46:37.589 -> 331
09:46:37.589 -> 328
09:46:37.628 -> 328
09:46:37.628 -> 333
09:46:37.628 -> 336
09:46:37.628 -> 330
09:46:37.628 -> 329
09:46:37.628 -> 334
09:46:37.628 -> 335
09:46:37.628 -> 331
09:46:37.669 -> 332
09:46:37.669 -> 338
09:46:37.669 -> 342
09:46:37.669 -> 338
09:46:37.669 -> 340
09:46:37.669 -> 346
09:46:37.669 -> 347
09:46:37.669 -> 345
09:46:37.709 -> 350
09:46:37.709 -> 360
09:46:37.709 -> 362
09:46:37.709 -> 361
09:46:37.709 -> 364
09:46:37.709 -> 370
09:46:37.709 -> 370
09:46:37.709 -> 369
09:46:37.749 -> 372
09:46:37.749 -> 378
09:46:37.749 -> 374
09:46:37.749 -> 370
09:46:37.749 -> 369
09:46:37.749 -> 363
09:46:37.749 -> 352
09:46:37.789 -> 340
09:46:37.789 -> 336
09:46:37.789 -> 333
09:46:37.789 -> 322
09:46:37.789 -> 315
09:46:37.789 -> 315
09:46:37.789 -> 314
09:46:37.789 -> 309
09:46:37.829 -> 304
09:46:37.829 -> 305
09:46:37.829 -> 307
09:46:37.829 -> 303
09:46:37.829 -> 304
09:46:37.829 -> 308
09:46:37.829 -> 308
09:46:37.829 -> 305
09:46:37.869 -> 305
09:46:37.869 -> 310
09:46:37.869 -> 311
09:46:37.869 -> 304
09:46:37.869 -> 304
09:46:37.869 -> 309
09:46:37.869 -> 309
09:46:37.869 -> 306
09:46:37.908 -> 307
09:46:37.908 -> 312
09:46:37.908 -> 309
09:46:37.908 -> 304
09:46:37.908 -> 307
09:46:37.908 -> 308
09:46:37.908 -> 301
09:46:37.949 -> 301
09:46:37.949 -> 309
09:46:37.949 -> 309
09:46:37.949 -> 305
09:46:37.949 -> 307
09:46:37.949 -> 312
09:46:37.949 -> 310
09:46:37.949 -> 306
09:46:37.989 -> 308
09:46:37.989 -> 309
09:46:37.989 -> 309
09:46:37.989 -> 307
09:46:37.989 -> 311
09:46:37.989 -> 313
09:46:37.989 -> 305
09:46:38.028 -> 304
09:46:38.028 -> 308
09:46:38.028 -> 312
09:46:38.028 -> 308
09:46:38.028 -> 305
09:46:38.028 -> 310
09:46:38.028 -> 312
09:46:38.028 -> 309
09:46:38.069 -> 307
09:46:38.069 -> 310
09:46:38.069 -> 312
09:46:38.069 -> 309
09:46:38.069 -> 309
09:46:38.069 -> 313
09:46:38.069 -> 312
09:46:38.069 -> 308
09:46:38.109 -> 309
09:46:38.109 -> 312
09:46:38.109 -> 311
09:46:38.109 -> 305
09:46:38.109 -> 305
09:46:38.109 -> 315
09:46:38.109 -> 316
09:46:38.149 -> 311
09:46:38.149 -> 311
09:46:38.149 -> 316
09:46:38.149 -> 314
09:46:38.149 -> 312
09:46:38.149 -> 313
09:46:38.149 -> 316
09:46:38.149 -> 311
09:46:38.189 -> 310
09:46:38.189 -> 315
09:46:38.189 -> 319
09:46:38.189 -> 312
09:46:38.189 -> 311
09:46:38.189 -> 315
09:46:38.189 -> 317
09:46:38.189 -> 313
09:46:38.228 -> 311
09:46:38.228 -> 316
09:46:38.228 -> 317
09:46:38.228 -> 311
09:46:38.228 -> 312
09:46:38.228 -> 317
09:46:38.228 -> 320
09:46:38.228 -> 316
09:46:38.269 -> 317
09:46:38.269 -> 320
09:46:38.269 -> 315
09:46:38.269 -> 315
09:46:38.269 -> 319
09:46:38.269 -> 318
09:46:38.269 -> 313
09:46:38.308 -> 314
09:46:38.308 -> 318
09:46:38.308 -> 319
09:46:38.308 -> 316
09:46:38.308 -> 315
09:46:38.308 -> 319
09:46:38.308 -> 318
09:46:38.308 -> 313
09:46:38.349 -> 316
09:46:38.349 -> 320
09:46:38.349 -> 320
09:46:38.349 -> 316
09:46:38.349 -> 318
09:46:38.349 -> 322
09:46:38.349 -> 320
09:46:38.349 -> 316
09:46:38.389 -> 320
09:46:38.389 -> 322
09:46:38.389 -> 318
09:46:38.389 -> 315
09:46:38.389 -> 319
09:46:38.389 -> 321
09:46:38.389 -> 315
09:46:38.389 -> 315
09:46:38.429 -> 322
09:46:38.429 -> 325
09:46:38.429 -> 320
09:46:38.429 -> 318
09:46:38.429 -> 321
09:46:38.429 -> 324
09:46:38.429 -> 319
09:46:38.468 -> 317
09:46:38.468 -> 324
09:46:38.468 -> 326
09:46:38.468 -> 320
09:46:38.468 -> 318
09:46:38.468 -> 323
09:46:38.468 -> 323
09:46:38.468 -> 319
09:46:38.509 -> 320
09:46:38.509 -> 326
09:46:38.509 -> 331
09:46:38.509 -> 331
09:46:38.509 -> 329
09:46:38.509 -> 333
09:46:38.509 -> 334
09:46:38.549 -> 331
09:46:38.549 -> 336
09:46:38.549 -> 343
09:46:38.549 -> 340
09:46:38.549 -> 333
09:46:38.549 -> 333
09:46:38.549 -> 336
09:46:38.549 -> 330
09:46:38.589 -> 322
09:46:38.589 -> 321
09:46:38.589 -> 323
09:46:38.589 -> 316
09:46:38.589 -> 320
09:46:38.589 -> 324
09:46:38.589 -> 320
09:46:38.629 -> 316
09:46:38.629 -> 317
09:46:38.629 -> 317
09:46:38.629 -> 312
09:46:38.629 -> 315
09:46:38.629 -> 333
09:46:38.629 -> 357
09:46:38.629 -> 382
09:46:38.669 -> 406
09:46:38.669 -> 404
09:46:38.669 -> 384
09:46:38.669 -> 352
09:46:38.669 -> 319
09:46:38.669 -> 291
09:46:38.669 -> 301
09:46:38.669 -> 315
09:46:38.719 -> 318
09:46:38.719 -> 324
09:46:38.719 -> 327
09:46:38.719 -> 322
09:46:38.719 -> 319
09:46:38.719 -> 322
09:46:38.719 -> 321
09:46:38.719 -> 318
09:46:38.719 -> 324
09:46:38.719 -> 330
09:46:38.758 -> 325
09:46:38.758 -> 320
09:46:38.758 -> 323
09:46:38.758 -> 330
09:46:38.758 -> 329
09:46:38.758 -> 327
09:46:38.758 -> 330
09:46:38.799 -> 332
09:46:38.799 -> 327
09:46:38.799 -> 324
09:46:38.799 -> 332
09:46:38.799 -> 340
09:46:38.799 -> 336
09:46:38.799 -> 333
09:46:38.799 -> 337
09:46:38.838 -> 340
09:46:38.838 -> 340
09:46:38.838 -> 340
09:46:38.838 -> 344
09:46:38.838 -> 348
09:46:38.838 -> 347
09:46:38.838 -> 347
09:46:38.879 -> 353
09:46:38.879 -> 361
09:46:38.879 -> 362
09:46:38.879 -> 362
09:46:38.879 -> 369
09:46:38.879 -> 373
09:46:38.879 -> 369
09:46:38.879 -> 369
09:46:38.919 -> 376
09:46:38.919 -> 380
09:46:38.919 -> 378
09:46:38.919 -> 376
09:46:38.919 -> 370
09:46:38.919 -> 357
09:46:38.919 -> 348
09:46:38.919 -> 344
09:46:38.959 -> 337
09:46:38.959 -> 328
09:46:38.959 -> 324
09:46:38.959 -> 320
09:46:38.959 -> 313
09:46:38.959 -> 308
09:46:38.959 -> 307
09:46:38.959 -> 307
09:46:38.999 -> 304
09:46:38.999 -> 301
09:46:38.999 -> 304
09:46:38.999 -> 309
09:46:38.999 -> 305
09:46:38.999 -> 303
09:46:38.999 -> 308
09:46:38.999 -> 312
09:46:39.039 -> 308
09:46:39.039 -> 301
09:46:39.039 -> 304
09:46:39.039 -> 309
09:46:39.039 -> 307
09:46:39.039 -> 306
09:46:39.039 -> 310
09:46:39.079 -> 310
09:46:39.079 -> 306
09:46:39.079 -> 304
09:46:39.079 -> 308
09:46:39.079 -> 309
09:46:39.079 -> 305
09:46:39.079 -> 305
09:46:39.079 -> 311
09:46:39.118 -> 311
09:46:39.118 -> 306
09:46:39.118 -> 308
09:46:39.118 -> 311
09:46:39.118 -> 310
09:46:39.118 -> 306
09:46:39.118 -> 307
09:46:39.118 -> 313
09:46:39.159 -> 313
09:46:39.159 -> 307
09:46:39.159 -> 309
09:46:39.159 -> 314
09:46:39.159 -> 313
09:46:39.159 -> 308
09:46:39.159 -> 311
09:46:39.159 -> 314
09:46:39.199 -> 310
09:46:39.199 -> 309
09:46:39.199 -> 313
09:46:39.199 -> 314
09:46:39.199 -> 310
09:46:39.199 -> 308
09:46:39.199 -> 312
09:46:39.239 -> 315
09:46:39.239 -> 312
09:46:39.239 -> 310
09:46:39.239 -> 313
09:46:39.239 -> 315
09:46:39.239 -> 311
09:46:39.239 -> 315
09:46:39.239 -> 315
09:46:39.279 -> 312
09:46:39.279 -> 312
09:46:39.279 -> 314
09:46:39.279 -> 314
09:46:39.279 -> 310
09:46:39.279 -> 311
09:46:39.279 -> 317
09:46:39.319 -> 317
09:46:39.319 -> 313
09:46:39.319 -> 311
09:46:39.319 -> 316
09:46:39.319 -> 317
09:46:39.319 -> 314
09:46:39.319 -> 317
09:46:39.319 -> 323
09:46:39.358 -> 319
09:46:39.358 -> 311
09:46:39.358 -> 312
09:46:39.358 -> 319
09:46:39.358 -> 316
09:46:39.358 -> 312
09:46:39.358 -> 316
09:46:39.399 -> 321
09:46:39.399 -> 318
09:46:39.399 -> 314
09:46:39.399 -> 315
09:46:39.399 -> 320
09:46:39.399 -> 318
09:46:39.399 -> 315
09:46:39.399 -> 317
09:46:39.439 -> 322
09:46:39.439 -> 318
09:46:39.439 -> 315
09:46:39.439 -> 317
09:46:39.439 -> 320
09:46:39.439 -> 318
09:46:39.439 -> 313
09:46:39.439 -> 318
09:46:39.479 -> 320
09:46:39.479 -> 316
09:46:39.479 -> 317
09:46:39.479 -> 321
09:46:39.479 -> 321
09:46:39.479 -> 317
09:46:39.479 -> 317
09:46:39.479 -> 322
09:46:39.519 -> 324
09:46:39.519 -> 321
09:46:39.519 -> 320
09:46:39.519 -> 321
09:46:39.519 -> 322
09:46:39.519 -> 318
09:46:39.519 -> 319
09:46:39.519 -> 323
09:46:39.559 -> 323
09:46:39.559 -> 320
09:46:39.559 -> 319
09:46:39.559 -> 323
09:46:39.559 -> 323
09:46:39.559 -> 320
09:46:39.559 -> 322
09:46:39.598 -> 326
09:46:39.598 -> 319
09:46:39.598 -> 318
09:46:39.598 -> 325
09:46:39.598 -> 324
09:46:39.598 -> 320
09:46:39.598 -> 322
09:46:39.598 -> 325
09:46:39.639 -> 323
09:46:39.639 -> 322
09:46:39.639 -> 327
09:46:39.639 -> 332
09:46:39.639 -> 333
09:46:39.639 -> 332
09:46:39.639 -> 339
09:46:39.639 -> 344
09:46:39.679 -> 336
09:46:39.679 -> 331
09:46:39.679 -> 337
09:46:39.679 -> 343
09:46:39.679 -> 340
09:46:39.679 -> 338
09:46:39.679 -> 340
09:46:39.679 -> 336
09:46:39.719 -> 324
09:46:39.719 -> 320
09:46:39.719 -> 323
09:46:39.719 -> 324
09:46:39.719 -> 321
09:46:39.719 -> 322
09:46:39.719 -> 324
09:46:39.758 -> 321
09:46:39.758 -> 315
09:46:39.758 -> 318
09:46:39.758 -> 323
09:46:39.758 -> 320
09:46:39.758 -> 315
09:46:39.758 -> 322
09:46:39.758 -> 343
09:46:39.799 -> 373
09:46:39.799 -> 404
09:46:39.799 -> 416
09:46:39.799 -> 403
09:46:39.799 -> 373
09:46:39.799 -> 336
09:46:39.799 -> 297
09:46:39.839 -> 290
09:46:39.839 -> 311
09:46:39.839 -> 320
09:46:39.839 -> 324
09:46:39.839 -> 329
09:46:39.839 -> 323
09:46:39.839 -> 318
09:46:39.839 -> 322
09:46:39.879 -> 327
09:46:39.879 -> 325
09:46:39.879 -> 321
09:46:39.879 -> 324
09:46:39.879 -> 325
09:46:39.879 -> 323
09:46:39.879 -> 324
09:46:39.919 -> 329
09:46:39.919 -> 332
09:46:39.919 -> 327
09:46:39.919 -> 327
09:46:39.919 -> 334
09:46:39.919 -> 328
09:46:39.919 -> 327
09:46:39.919 -> 335
09:46:39.958 -> 337
09:46:39.958 -> 332
09:46:39.958 -> 334
09:46:39.958 -> 342
09:46:39.958 -> 342
09:46:39.958 -> 339
09:46:39.958 -> 343
09:46:39.958 -> 351
09:46:39.999 -> 353
09:46:39.999 -> 350
09:46:39.999 -> 354
09:46:39.999 -> 361
09:46:39.999 -> 363
09:46:39.999 -> 361
09:46:39.999 -> 365
09:46:39.999 -> 373
09:46:40.039 -> 376
09:46:40.039 -> 374
09:46:40.039 -> 376
09:46:40.039 -> 381
09:46:40.039 -> 379
09:46:40.039 -> 378
09:46:40.039 -> 381
09:46:40.079 -> 379
09:46:40.079 -> 366
09:46:40.079 -> 353
09:46:40.079 -> 345
09:46:40.079 -> 341
09:46:40.079 -> 332
09:46:40.079 -> 324
09:46:40.079 -> 320
09:46:40.119 -> 316
09:46:40.119 -> 307
09:46:40.119 -> 303
09:46:40.119 -> 305
09:46:40.119 -> 305
09:46:40.119 -> 304
09:46:40.119 -> 305
09:46:40.119 -> 308
09:46:40.158 -> 304
09:46:40.158 -> 297
09:46:40.158 -> 299
09:46:40.158 -> 305
09:46:40.158 -> 306
09:46:40.158 -> 303
09:46:40.158 -> 303
09:46:40.158 -> 305
09:46:40.199 -> 304
09:46:40.199 -> 302
09:46:40.199 -> 305
09:46:40.199 -> 309
09:46:40.199 -> 306
09:46:40.199 -> 303
09:46:40.199 -> 304
09:46:40.199 -> 308
09:46:40.239 -> 305
09:46:40.239 -> 300
09:46:40.239 -> 303
09:46:40.239 -> 309
09:46:40.239 -> 307
09:46:40.239 -> 309
09:46:40.239 -> 311
09:46:40.279 -> 307
09:46:40.279 -> 305
09:46:40.279 -> 307
09:46:40.279 -> 310
09:46:40.279 -> 307
09:46:40.279 -> 306
09:46:40.279 -> 310
09:46:40.279 -> 315
09:46:40.318 -> 310
09:46:40.318 -> 308
09:46:40.318 -> 312
09:46:40.318 -> 314
09:46:40.318 -> 310
09:46:40.318 -> 310
09:46:40.318 -> 315
09:46:40.358 -> 312
09:46:40.358 -> 307
09:46:40.358 -> 307
09:46:40.358 -> 314
09:46:40.358 -> 315
09:46:40.358 -> 311
09:46:40.358 -> 310
09:46:40.358 -> 312
09:46:40.399 -> 312
09:46:40.399 -> 310
09:46:40.399 -> 311
09:46:40.399 -> 316
09:46:40.399 -> 315
09:46:40.399 -> 311
09:46:40.399 -> 313
09:46:40.439 -> 316
09:46:40.439 -> 314
09:46:40.439 -> 310
09:46:40.439 -> 313
09:46:40.439 -> 319
09:46:40.439 -> 316
09:46:40.439 -> 314
09:46:40.439 -> 320
09:46:40.479 -> 322
09:46:40.479 -> 316
09:46:40.479 -> 311
09:46:40.479 -> 316
09:46:40.479 -> 320
09:46:40.479 -> 317
09:46:40.479 -> 315
09:46:40.479 -> 318
09:46:40.519 -> 319
09:46:40.519 -> 314
09:46:40.519 -> 313
09:46:40.519 -> 317
09:46:40.519 -> 321
09:46:40.519 -> 318
09:46:40.519 -> 317
09:46:40.519 -> 319
09:46:40.558 -> 319
09:46:40.558 -> 315
09:46:40.558 -> 317
09:46:40.558 -> 322
09:46:40.558 -> 321
09:46:40.558 -> 316
09:46:40.558 -> 316
09:46:40.599 -> 321
09:46:40.599 -> 318
09:46:40.599 -> 317
09:46:40.599 -> 321
09:46:40.599 -> 321
09:46:40.599 -> 318
09:46:40.599 -> 318
09:46:40.599 -> 321
09:46:40.639 -> 320
09:46:40.639 -> 317
09:46:40.639 -> 320
09:46:40.639 -> 322
09:46:40.639 -> 321
09:46:40.639 -> 319
09:46:40.639 -> 318
09:46:40.639 -> 319
09:46:40.679 -> 317
09:46:40.679 -> 319
09:46:40.679 -> 324
09:46:40.679 -> 327
09:46:40.679 -> 322
09:46:40.679 -> 320
09:46:40.679 -> 327
09:46:40.679 -> 334
09:46:40.719 -> 335
09:46:40.719 -> 330
09:46:40.719 -> 330
09:46:40.719 -> 336
09:46:40.719 -> 336
09:46:40.719 -> 337
09:46:40.719 -> 343
09:46:40.719 -> 350
09:46:40.759 -> 331
09:46:40.759 -> 314
09:46:40.759 -> 314
09:46:40.759 -> 316
09:46:40.759 -> 313
09:46:40.759 -> 313
09:46:40.759 -> 318
09:46:40.799 -> 318
09:46:40.799 -> 314
09:46:40.799 -> 314
09:46:40.799 -> 318
09:46:40.799 -> 319
09:46:40.799 -> 313
09:46:40.799 -> 310
09:46:40.838 -> 319
09:46:40.838 -> 334
09:46:40.838 -> 356
09:46:40.838 -> 391
09:46:40.838 -> 409
09:46:40.838 -> 392
09:46:40.838 -> 359
09:46:40.838 -> 333
09:46:40.879 -> 299
09:46:40.879 -> 278
09:46:40.879 -> 295
09:46:40.879 -> 317
09:46:40.879 -> 322
09:46:40.879 -> 319
09:46:40.879 -> 320
09:46:40.879 -> 326
09:46:40.919 -> 328
09:46:40.919 -> 324
09:46:40.919 -> 324
09:46:40.919 -> 328
09:46:40.919 -> 318
09:46:40.919 -> 319
09:46:40.919 -> 325
09:46:40.959 -> 328
09:46:40.959 -> 323
09:46:40.959 -> 324
09:46:40.959 -> 332
09:46:40.959 -> 335
09:46:40.959 -> 332
09:46:40.959 -> 330
09:46:40.959 -> 336
09:46:40.999 -> 338
09:46:40.999 -> 334
09:46:40.999 -> 336
09:46:40.999 -> 342
09:46:40.999 -> 344
09:46:40.999 -> 341
09:46:40.999 -> 344
09:46:40.999 -> 352
09:46:41.039 -> 351
09:46:41.039 -> 345
09:46:41.039 -> 350
09:46:41.039 -> 358
09:46:41.039 -> 361
09:46:41.039 -> 359
09:46:41.039 -> 363
09:46:41.039 -> 373
09:46:41.078 -> 373
09:46:41.078 -> 371
09:46:41.078 -> 377
09:46:41.078 -> 382
09:46:41.078 -> 379
09:46:41.078 -> 377
09:46:41.078 -> 382
09:46:41.119 -> 389
09:46:41.119 -> 373
09:46:41.119 -> 353
09:46:41.119 -> 352
09:46:41.119 -> 350
09:46:41.119 -> 338
09:46:41.119 -> 326
09:46:41.119 -> 325
09:46:41.159 -> 323
09:46:41.159 -> 314
09:46:41.159 -> 309
09:46:41.159 -> 311
09:46:41.159 -> 310
09:46:41.159 -> 308
09:46:41.159 -> 306
09:46:41.159 -> 308
09:46:41.198 -> 306
09:46:41.198 -> 302
09:46:41.198 -> 304
09:46:41.198 -> 310
09:46:41.198 -> 310
09:46:41.198 -> 304
09:46:41.198 -> 304
09:46:41.198 -> 311
09:46:41.238 -> 311
09:46:41.238 -> 305
09:46:41.238 -> 304
09:46:41.238 -> 311
09:46:41.238 -> 316
09:46:41.238 -> 302
09:46:41.238 -> 303
09:46:41.279 -> 303
09:46:41.279 -> 302
09:46:41.279 -> 307
09:46:41.279 -> 312
09:46:41.279 -> 309
09:46:41.279 -> 307
09:46:41.279 -> 310
09:46:41.279 -> 316
09:46:41.318 -> 310
09:46:41.318 -> 307
09:46:41.318 -> 312
09:46:41.318 -> 313
09:46:41.318 -> 308
09:46:41.318 -> 309
09:46:41.318 -> 315
09:46:41.359 -> 319
09:46:41.359 -> 313
09:46:41.359 -> 310
09:46:41.359 -> 317
09:46:41.359 -> 317
09:46:41.359 -> 309
09:46:41.359 -> 308
09:46:41.359 -> 316
09:46:41.399 -> 317
09:46:41.399 -> 313
09:46:41.399 -> 312
09:46:41.399 -> 318
09:46:41.399 -> 320
09:46:41.399 -> 319
09:46:41.399 -> 318
09:46:41.399 -> 312
09:46:41.438 -> 309
09:46:41.438 -> 308
09:46:41.438 -> 311
09:46:41.438 -> 317
09:46:41.438 -> 315
09:46:41.438 -> 310
09:46:41.438 -> 314
09:46:41.478 -> 321
09:46:41.478 -> 317
09:46:41.478 -> 312
09:46:41.478 -> 316
09:46:41.478 -> 321
09:46:41.478 -> 318
09:46:41.478 -> 312
09:46:41.478 -> 315
09:46:41.518 -> 322
09:46:41.518 -> 318
09:46:41.518 -> 314
09:46:41.518 -> 320
09:46:41.518 -> 323
09:46:41.518 -> 318
09:46:41.518 -> 315
09:46:41.518 -> 322
09:46:41.559 -> 335
09:46:41.559 -> 322
09:46:41.559 -> 307
09:46:41.559 -> 313
09:46:41.559 -> 320
09:46:41.559 -> 317
09:46:41.559 -> 313
09:46:41.559 -> 321
09:46:41.599 -> 324
09:46:41.599 -> 327
09:46:41.599 -> 335
09:46:41.599 -> 337
09:46:41.599 -> 332
09:46:41.599 -> 328
09:46:41.599 -> 333
09:46:41.639 -> 337
09:46:41.639 -> 332
09:46:41.639 -> 332
09:46:41.639 -> 339
09:46:41.639 -> 342
09:46:41.639 -> 326
09:46:41.639 -> 308
09:46:41.639 -> 311
09:46:41.679 -> 315
09:46:41.679 -> 315
09:46:41.679 -> 317
09:46:41.679 -> 320
09:46:41.679 -> 317
09:46:41.679 -> 314
09:46:41.679 -> 320
09:46:41.679 -> 324
09:46:41.719 -> 316
09:46:41.719 -> 313
09:46:41.719 -> 326
09:46:41.719 -> 349
09:46:41.719 -> 369
09:46:41.719 -> 385
09:46:41.719 -> 384
09:46:41.719 -> 366
09:46:41.759 -> 338
09:46:41.759 -> 310
09:46:41.759 -> 287
09:46:41.759 -> 286
09:46:41.759 -> 298
09:46:41.759 -> 312
09:46:41.759 -> 320
09:46:41.799 -> 325
09:46:41.799 -> 323
09:46:41.799 -> 323
09:46:41.799 -> 326
09:46:41.799 -> 327
09:46:41.799 -> 325
09:46:41.799 -> 326
09:46:41.799 -> 330
09:46:41.838 -> 330
09:46:41.838 -> 325
09:46:41.838 -> 326
09:46:41.838 -> 332
09:46:41.838 -> 332
09:46:41.838 -> 331
09:46:41.838 -> 334
09:46:41.879 -> 329
09:46:41.879 -> 328
09:46:41.879 -> 329
09:46:41.879 -> 333
09:46:41.879 -> 337
09:46:41.879 -> 338
09:46:41.879 -> 336
09:46:41.879 -> 341
09:46:41.919 -> 347
09:46:41.919 -> 344
09:46:41.919 -> 344
09:46:41.919 -> 356
09:46:41.919 -> 356
09:46:41.919 -> 355
09:46:41.919 -> 358
09:46:41.919 -> 363
09:46:41.959 -> 362
09:46:41.959 -> 363
09:46:41.959 -> 369
09:46:41.959 -> 376
09:46:41.959 -> 374
09:46:41.959 -> 374
09:46:41.959 -> 382
09:46:41.999 -> 391
09:46:41.999 -> 376
09:46:41.999 -> 365
09:46:41.999 -> 367
09:46:41.999 -> 365
09:46:41.999 -> 354
09:46:41.999 -> 344
09:46:41.999 -> 341
09:46:42.038 -> 335
09:46:42.038 -> 325
09:46:42.038 -> 320
09:46:42.038 -> 321
09:46:42.038 -> 318
09:46:42.038 -> 312
09:46:42.038 -> 313
09:46:42.038 -> 315
09:46:42.079 -> 310
09:46:42.079 -> 306
09:46:42.079 -> 308
09:46:42.079 -> 312
09:46:42.079 -> 310
09:46:42.079 -> 308
09:46:42.079 -> 313
09:46:42.079 -> 307
09:46:42.119 -> 298
09:46:42.119 -> 300
09:46:42.119 -> 307
09:46:42.119 -> 312
09:46:42.119 -> 308
09:46:42.119 -> 304
09:46:42.119 -> 310
09:46:42.159 -> 314
09:46:42.159 -> 308
09:46:42.159 -> 304
09:46:42.159 -> 310
09:46:42.159 -> 313
09:46:42.159 -> 308
09:46:42.159 -> 306
09:46:42.159 -> 312
09:46:42.199 -> 314
09:46:42.199 -> 310
09:46:42.199 -> 306
09:46:42.199 -> 311
09:46:42.199 -> 315
09:46:42.199 -> 314
09:46:42.199 -> 321
09:46:42.199 -> 317
09:46:42.238 -> 311
09:46:42.238 -> 307
09:46:42.238 -> 307
09:46:42.238 -> 313
09:46:42.238 -> 316
09:46:42.238 -> 314
09:46:42.238 -> 320
09:46:42.238 -> 316
09:46:42.279 -> 310
09:46:42.279 -> 314
09:46:42.279 -> 316
09:46:42.279 -> 316
09:46:42.279 -> 314
09:46:42.279 -> 315
09:46:42.279 -> 315
09:46:42.318 -> 315
09:46:42.318 -> 313
09:46:42.318 -> 316
09:46:42.318 -> 318
09:46:42.318 -> 317
09:46:42.318 -> 322
09:46:42.318 -> 315
09:46:42.318 -> 312
09:46:42.359 -> 309
09:46:42.359 -> 310
09:46:42.359 -> 317
09:46:42.359 -> 318
09:46:42.359 -> 312
09:46:42.359 -> 311
09:46:42.359 -> 317
09:46:42.399 -> 323
09:46:42.399 -> 318
09:46:42.399 -> 313
09:46:42.399 -> 317
09:46:42.399 -> 320
09:46:42.399 -> 317
09:46:42.399 -> 318
09:46:42.399 -> 323
09:46:42.439 -> 325
09:46:42.439 -> 321
09:46:42.439 -> 322
09:46:42.439 -> 333
09:46:42.439 -> 329
09:46:42.439 -> 321
09:46:42.439 -> 325
09:46:42.479 -> 332
09:46:42.479 -> 330
09:46:42.479 -> 321
09:46:42.479 -> 321
09:46:42.479 -> 326
09:46:42.479 -> 321
09:46:42.479 -> 313
09:46:42.479 -> 314
09:46:42.519 -> 319
09:46:42.519 -> 316
09:46:42.519 -> 314
09:46:42.519 -> 316
09:46:42.519 -> 321
09:46:42.519 -> 317
09:46:42.519 -> 312
09:46:42.519 -> 317
09:46:42.559 -> 321
09:46:42.559 -> 318
09:46:42.559 -> 316
09:46:42.559 -> 329
09:46:42.559 -> 353
09:46:42.559 -> 374
09:46:42.559 -> 395
09:46:42.559 -> 383
09:46:42.599 -> 329
09:46:42.599 -> 299
09:46:42.599 -> 277
09:46:42.599 -> 285
09:46:42.599 -> 307
09:46:42.599 -> 319
09:46:42.599 -> 323
09:46:42.599 -> 324
09:46:42.639 -> 321
09:46:42.639 -> 321
09:46:42.639 -> 325
09:46:42.639 -> 328
09:46:42.639 -> 323
09:46:42.639 -> 324
09:46:42.639 -> 331
09:46:42.679 -> 333
09:46:42.679 -> 327
09:46:42.679 -> 329
09:46:42.679 -> 335
09:46:42.679 -> 332
09:46:42.679 -> 329
09:46:42.679 -> 331
09:46:42.679 -> 337
09:46:42.719 -> 338
09:46:42.719 -> 333
09:46:42.719 -> 334
09:46:42.719 -> 339
09:46:42.719 -> 340
09:46:42.719 -> 339
09:46:42.719 -> 350
09:46:42.719 -> 350
09:46:42.759 -> 338
09:46:42.759 -> 336
09:46:42.759 -> 345
09:46:42.759 -> 354
09:46:42.759 -> 355
09:46:42.759 -> 353
09:46:42.759 -> 357
09:46:42.759 -> 365
09:46:42.799 -> 366
09:46:42.799 -> 368
09:46:42.799 -> 373
09:46:42.799 -> 376
09:46:42.799 -> 372
09:46:42.799 -> 372
09:46:42.799 -> 380
09:46:42.839 -> 381
09:46:42.839 -> 373
09:46:42.839 -> 368
09:46:42.839 -> 368
09:46:42.839 -> 365
09:46:42.839 -> 352
09:46:42.839 -> 343
09:46:42.839 -> 341
09:46:42.878 -> 335
09:46:42.878 -> 323
09:46:42.878 -> 315
09:46:42.878 -> 315
09:46:42.878 -> 314
09:46:42.878 -> 311
09:46:42.878 -> 309
09:46:42.919 -> 311
09:46:42.919 -> 311
09:46:42.919 -> 306
09:46:42.919 -> 310
09:46:42.919 -> 307
09:46:42.919 -> 302
09:46:42.919 -> 307
09:46:42.919 -> 310
09:46:42.959 -> 306
09:46:42.959 -> 303
09:46:42.959 -> 307
09:46:42.959 -> 312
09:46:42.959 -> 308
09:46:42.959 -> 303
09:46:42.959 -> 305
09:46:42.998 -> 309
09:46:42.998 -> 306
09:46:42.998 -> 303
09:46:42.998 -> 306
09:46:42.998 -> 309
09:46:42.998 -> 308
09:46:42.998 -> 307
09:46:42.998 -> 311
09:46:43.038 -> 314
09:46:43.038 -> 309
09:46:43.038 -> 306
09:46:43.038 -> 312
09:46:43.038 -> 314
09:46:43.038 -> 311
09:46:43.038 -> 309
09:46:43.038 -> 312
09:46:43.079 -> 312
09:46:43.079 -> 307
09:46:43.079 -> 310
09:46:43.079 -> 314
09:46:43.079 -> 312
09:46:43.079 -> 306
09:46:43.079 -> 308
09:46:43.079 -> 315
09:46:43.119 -> 315
09:46:43.119 -> 311
09:46:43.119 -> 313
09:46:43.119 -> 317
09:46:43.119 -> 314
09:46:43.119 -> 310
09:46:43.119 -> 314
09:46:43.119 -> 319
09:46:43.159 -> 315
09:46:43.159 -> 311
09:46:43.159 -> 313
09:46:43.159 -> 319
09:46:43.159 -> 319
09:46:43.159 -> 314
09:46:43.159 -> 316
09:46:43.198 -> 320
09:46:43.198 -> 316
09:46:43.198 -> 313
09:46:43.198 -> 316
09:46:43.198 -> 319
09:46:43.198 -> 317
09:46:43.198 -> 316
09:46:43.198 -> 320
09:46:43.239 -> 321
09:46:43.239 -> 317
09:46:43.239 -> 317
09:46:43.239 -> 319
09:46:43.239 -> 319
09:46:43.239 -> 313
09:46:43.239 -> 319
09:46:43.239 -> 323
09:46:43.279 -> 318
09:46:43.279 -> 316
09:46:43.279 -> 320
09:46:43.279 -> 321
09:46:43.279 -> 317
09:46:43.279 -> 318
09:46:43.279 -> 322
09:46:43.279 -> 320
09:46:43.319 -> 314
09:46:43.319 -> 317
09:46:43.319 -> 321
09:46:43.319 -> 318
09:46:43.319 -> 315
09:46:43.319 -> 319
09:46:43.319 -> 325
09:46:43.358 -> 321
09:46:43.358 -> 314
09:46:43.358 -> 316
09:46:43.358 -> 322
09:46:43.358 -> 320
09:46:43.358 -> 316
09:46:43.358 -> 317
09:46:43.358 -> 320
09:46:43.398 -> 318
09:46:43.398 -> 317
09:46:43.398 -> 322
09:46:43.398 -> 326
09:46:43.398 -> 320
09:46:43.398 -> 315
09:46:43.398 -> 318
09:46:43.439 -> 323
09:46:43.439 -> 320
09:46:43.439 -> 321
09:46:43.439 -> 329
09:46:43.439 -> 333
09:46:43.439 -> 325
09:46:43.439 -> 324
09:46:43.439 -> 331
09:46:43.479 -> 335
09:46:43.479 -> 330
09:46:43.479 -> 328
09:46:43.479 -> 335
09:46:43.479 -> 336
09:46:43.479 -> 329
09:46:43.479 -> 329
09:46:43.518 -> 325
09:46:43.518 -> 319
09:46:43.518 -> 313
09:46:43.518 -> 315
09:46:43.518 -> 320
09:46:43.518 -> 320
09:46:43.518 -> 316
09:46:43.518 -> 314
09:46:43.558 -> 317
09:46:43.558 -> 314
09:46:43.558 -> 310
09:46:43.558 -> 313
09:46:43.558 -> 322
09:46:43.558 -> 332
09:46:43.558 -> 350
09:46:43.558 -> 382
09:46:43.599 -> 389
09:46:43.599 -> 362
09:46:43.599 -> 340
09:46:43.599 -> 309
09:46:43.599 -> 280
09:46:43.599 -> 295
09:46:43.599 -> 320
09:46:43.599 -> 326
09:46:43.639 -> 322
09:46:43.639 -> 318
09:46:43.639 -> 320
09:46:43.639 -> 323
09:46:43.639 -> 315
09:46:43.639 -> 312
09:46:43.639 -> 319
09:46:43.639 -> 324
09:46:43.679 -> 323
09:46:43.679 -> 321
09:46:43.679 -> 326
09:46:43.679 -> 327
09:46:43.679 -> 324
09:46:43.679 -> 322
09:46:43.679 -> 326
09:46:43.719 -> 328
09:46:43.719 -> 324
09:46:43.719 -> 327
09:46:43.719 -> 333
09:46:43.719 -> 332
09:46:43.719 -> 327
09:46:43.719 -> 327
09:46:43.719 -> 334
09:46:43.758 -> 335
09:46:43.758 -> 333
09:46:43.758 -> 337
09:46:43.758 -> 341
09:46:43.758 -> 343
09:46:43.758 -> 341
09:46:43.758 -> 344
09:46:43.758 -> 350
09:46:43.799 -> 349
09:46:43.799 -> 348
09:46:43.799 -> 354
09:46:43.799 -> 363
09:46:43.799 -> 364
09:46:43.799 -> 365
09:46:43.799 -> 370
09:46:43.839 -> 375
09:46:43.839 -> 370
09:46:43.839 -> 367
09:46:43.839 -> 370
09:46:43.839 -> 371
09:46:43.839 -> 363
09:46:43.839 -> 356
09:46:43.839 -> 354
09:46:43.879 -> 348
09:46:43.879 -> 334
09:46:43.879 -> 325
09:46:43.879 -> 324
09:46:43.879 -> 320
09:46:43.879 -> 308
09:46:43.879 -> 303
09:46:43.918 -> 306
09:46:43.918 -> 307
09:46:43.918 -> 301
09:46:43.918 -> 302
09:46:43.918 -> 303
09:46:43.918 -> 300
09:46:43.918 -> 300
09:46:43.918 -> 305
09:46:43.958 -> 302
09:46:43.958 -> 296
09:46:43.958 -> 298
09:46:43.958 -> 305
09:46:43.958 -> 306
09:46:43.958 -> 300
09:46:43.958 -> 298
09:46:43.958 -> 303
09:46:43.998 -> 301
09:46:43.998 -> 300
09:46:43.998 -> 304
09:46:43.998 -> 308
09:46:43.998 -> 304
09:46:43.998 -> 300
09:46:43.998 -> 301
09:46:44.039 -> 305
09:46:44.039 -> 303
09:46:44.039 -> 303
09:46:44.039 -> 309
09:46:44.039 -> 311
09:46:44.039 -> 304
09:46:44.039 -> 300
09:46:44.039 -> 307
09:46:44.079 -> 311
09:46:44.079 -> 305
09:46:44.079 -> 301
09:46:44.079 -> 306
09:46:44.079 -> 310
09:46:44.079 -> 308
09:46:44.079 -> 308
09:46:44.079 -> 311
09:46:44.118 -> 313
09:46:44.118 -> 308
09:46:44.118 -> 305
09:46:44.118 -> 311
09:46:44.118 -> 312
09:46:44.118 -> 307
09:46:44.118 -> 305
09:46:44.118 -> 309
09:46:44.159 -> 313
09:46:44.159 -> 311
09:46:44.159 -> 311
09:46:44.159 -> 313
09:46:44.159 -> 312
09:46:44.159 -> 307
09:46:44.159 -> 308
09:46:44.199 -> 313
09:46:44.199 -> 311
09:46:44.199 -> 308
09:46:44.199 -> 308
09:46:44.199 -> 312
09:46:44.199 -> 310
09:46:44.199 -> 307
09:46:44.199 -> 311
09:46:44.239 -> 315
09:46:44.239 -> 314
09:46:44.239 -> 311
09:46:44.239 -> 315
09:46:44.239 -> 317
09:46:44.239 -> 310
09:46:44.239 -> 314
09:46:44.239 -> 317
09:46:44.278 -> 313
09:46:44.278 -> 310
09:46:44.278 -> 315
09:46:44.278 -> 318
09:46:44.278 -> 315
09:46:44.278 -> 315
09:46:44.278 -> 320
09:46:44.278 -> 321
09:46:44.319 -> 315
09:46:44.319 -> 314
09:46:44.319 -> 320
09:46:44.319 -> 321
09:46:44.319 -> 314
09:46:44.319 -> 314
09:46:44.319 -> 319
09:46:44.319 -> 319
09:46:44.358 -> 317
09:46:44.358 -> 320
09:46:44.358 -> 323
09:46:44.358 -> 319
09:46:44.358 -> 317
09:46:44.358 -> 320
09:46:44.358 -> 326
09:46:44.399 -> 324
09:46:44.399 -> 318
09:46:44.399 -> 319
09:46:44.399 -> 322
09:46:44.399 -> 321
09:46:44.399 -> 318
09:46:44.399 -> 324
09:46:44.439 -> 327
09:46:44.439 -> 323
09:46:44.439 -> 320
09:46:44.439 -> 325
09:46:44.439 -> 328
09:46:44.439 -> 323
09:46:44.439 -> 319
09:46:44.439 -> 323
09:46:44.479 -> 328
09:46:44.479 -> 326
09:46:44.479 -> 322
09:46:44.479 -> 322
09:46:44.479 -> 325
09:46:44.479 -> 322
09:46:44.479 -> 320
09:46:44.479 -> 325
09:46:44.519 -> 327
09:46:44.519 -> 326
09:46:44.519 -> 325
09:46:44.519 -> 329
09:46:44.519 -> 331
09:46:44.519 -> 329
09:46:44.519 -> 335
09:46:44.558 -> 341
09:46:44.558 -> 339
09:46:44.558 -> 334
09:46:44.558 -> 332
09:46:44.558 -> 339
09:46:44.558 -> 339
09:46:44.558 -> 334
09:46:44.558 -> 331
09:46:44.599 -> 326
09:46:44.599 -> 319
09:46:44.599 -> 320
09:46:44.599 -> 324
09:46:44.599 -> 324
09:46:44.599 -> 320
09:46:44.599 -> 320
09:46:44.599 -> 324
09:46:44.639 -> 321
09:46:44.639 -> 316
09:46:44.639 -> 316
09:46:44.639 -> 319
09:46:44.639 -> 323
09:46:44.639 -> 334
09:46:44.639 -> 359
09:46:44.639 -> 395
09:46:44.679 -> 410
09:46:44.679 -> 395
09:46:44.679 -> 373
09:46:44.679 -> 351
09:46:44.679 -> 313
09:46:44.679 -> 286
09:46:44.679 -> 302
09:46:44.719 -> 319
09:46:44.719 -> 321
09:46:44.719 -> 322
09:46:44.719 -> 327
09:46:44.719 -> 328
09:46:44.719 -> 323
09:46:44.719 -> 321
09:46:44.719 -> 325
09:46:44.759 -> 326
09:46:44.759 -> 323
09:46:44.759 -> 324
09:46:44.759 -> 326
09:46:44.759 -> 327
09:46:44.759 -> 328
09:46:44.759 -> 331
09:46:44.759 -> 332
09:46:44.798 -> 331
09:46:44.798 -> 328
09:46:44.798 -> 332
09:46:44.798 -> 338
09:46:44.798 -> 335
09:46:44.798 -> 330
09:46:44.798 -> 332
09:46:44.798 -> 338
09:46:44.839 -> 338
09:46:44.839 -> 335
09:46:44.839 -> 339
09:46:44.839 -> 344
09:46:44.839 -> 343
09:46:44.839 -> 342
09:46:44.839 -> 348
09:46:44.878 -> 356
09:46:44.878 -> 354
09:46:44.878 -> 351
09:46:44.878 -> 357
09:46:44.878 -> 365
09:46:44.878 -> 368
09:46:44.878 -> 368
09:46:44.878 -> 373
09:46:44.919 -> 376
09:46:44.919 -> 374
09:46:44.919 -> 381
09:46:44.919 -> 383
09:46:44.919 -> 376
09:46:44.919 -> 370
09:46:44.919 -> 368
09:46:44.958 -> 362
09:46:44.958 -> 348
09:46:44.958 -> 339
09:46:44.958 -> 337
09:46:44.958 -> 331
09:46:44.958 -> 322
09:46:44.958 -> 316
09:46:44.958 -> 315
09:46:44.999 -> 311
09:46:44.999 -> 304
09:46:44.999 -> 304
09:46:44.999 -> 309
09:46:44.999 -> 309
09:46:44.999 -> 306
09:46:44.999 -> 304
09:46:45.039 -> 307
09:46:45.039 -> 307
09:46:45.039 -> 302
09:46:45.039 -> 302
09:46:45.039 -> 306
09:46:45.039 -> 305
09:46:45.039 -> 304
09:46:45.039 -> 305
09:46:45.079 -> 309
09:46:45.079 -> 306
09:46:45.079 -> 301
09:46:45.079 -> 304
09:46:45.079 -> 311
09:46:45.079 -> 308
09:46:45.079 -> 305
09:46:45.079 -> 306
09:46:45.119 -> 308
09:46:45.119 -> 305
09:46:45.119 -> 304
09:46:45.119 -> 308
09:46:45.119 -> 310
09:46:45.119 -> 306
09:46:45.119 -> 305
09:46:45.119 -> 308
09:46:45.159 -> 311
09:46:45.159 -> 308
09:46:45.159 -> 308
09:46:45.159 -> 313
09:46:45.159 -> 313
09:46:45.159 -> 310
09:46:45.159 -> 308
09:46:45.159 -> 311
09:46:45.199 -> 312
09:46:45.199 -> 308
09:46:45.199 -> 308
09:46:45.199 -> 314
09:46:45.199 -> 314
09:46:45.199 -> 310
09:46:45.199 -> 311
09:46:45.244 -> 314
09:46:45.244 -> 308
09:46:45.244 -> 306
09:46:45.244 -> 311
09:46:45.244 -> 316
09:46:45.244 -> 307
09:46:45.244 -> 308
09:46:45.244 -> 316
09:46:45.244 -> 314
09:46:45.279 -> 310
09:46:45.279 -> 313
09:46:45.279 -> 317
09:46:45.279 -> 312
09:46:45.279 -> 307
09:46:45.279 -> 313
09:46:45.279 -> 317
09:46:45.319 -> 313
09:46:45.319 -> 310
09:46:45.319 -> 312
09:46:45.319 -> 316
09:46:45.319 -> 314
09:46:45.319 -> 314
09:46:45.319 -> 318
09:46:45.319 -> 320
09:46:45.359 -> 316
09:46:45.359 -> 314
09:46:45.359 -> 319
09:46:45.359 -> 322
09:46:45.359 -> 314
09:46:45.359 -> 314
09:46:45.359 -> 317
09:46:45.399 -> 318
09:46:45.399 -> 317
09:46:45.399 -> 318
09:46:45.399 -> 320
09:46:45.399 -> 320
09:46:45.399 -> 315
09:46:45.399 -> 314
09:46:45.399 -> 320
09:46:45.439 -> 321
09:46:45.439 -> 319
09:46:45.439 -> 318
09:46:45.439 -> 321
09:46:45.439 -> 319
09:46:45.439 -> 315
09:46:45.439 -> 318
09:46:45.479 -> 322
09:46:45.479 -> 321
09:46:45.479 -> 316
09:46:45.479 -> 319
09:46:45.479 -> 322
09:46:45.479 -> 318
09:46:45.479 -> 318
09:46:45.479 -> 320
09:46:45.514 -> 323
09:46:45.514 -> 321
09:46:45.514 -> 318
09:46:45.514 -> 322
09:46:45.514 -> 326
09:46:45.514 -> 322
09:46:45.514 -> 316
09:46:45.549 -> 319
09:46:45.549 -> 322
09:46:45.549 -> 320
09:46:45.549 -> 318
09:46:45.549 -> 322
09:46:45.549 -> 322
09:46:45.549 -> 318
09:46:45.588 -> 318
09:46:45.588 -> 325
09:46:45.588 -> 321
09:46:45.588 -> 320
09:46:45.588 -> 321
09:46:45.588 -> 322
09:46:45.588 -> 321
09:46:45.629 -> 323
09:46:45.629 -> 329
09:46:45.629 -> 332
09:46:45.629 -> 328
09:46:45.629 -> 330
09:46:45.629 -> 337
09:46:45.629 -> 337
09:46:45.629 -> 331
09:46:45.668 -> 332
09:46:45.668 -> 338
09:46:45.668 -> 337
09:46:45.668 -> 333
09:46:45.668 -> 335
09:46:45.668 -> 339
09:46:45.668 -> 333
09:46:45.668 -> 321
09:46:45.709 -> 320
09:46:45.709 -> 324
09:46:45.709 -> 320
09:46:45.709 -> 319
09:46:45.709 -> 321
09:46:45.709 -> 325
09:46:45.709 -> 322
09:46:45.749 -> 320
09:46:45.749 -> 321
09:46:45.749 -> 322
09:46:45.749 -> 318
09:46:45.749 -> 319
09:46:45.749 -> 332
09:46:45.749 -> 354
09:46:45.749 -> 379
09:46:45.789 -> 409
09:46:45.789 -> 410
09:46:45.789 -> 388
09:46:45.789 -> 359
09:46:45.789 -> 330
09:46:45.789 -> 297
09:46:45.789 -> 294
09:46:45.829 -> 310
09:46:45.829 -> 321
09:46:45.829 -> 327
09:46:45.829 -> 328
09:46:45.829 -> 325
09:46:45.829 -> 327
09:46:45.829 -> 331
09:46:45.829 -> 330
09:46:45.868 -> 327
09:46:45.868 -> 329
09:46:45.868 -> 334
09:46:45.868 -> 330
09:46:45.868 -> 325
09:46:45.868 -> 327
09:46:45.868 -> 335
09:46:45.868 -> 337
09:46:45.908 -> 334
09:46:45.908 -> 335
09:46:45.908 -> 337
09:46:45.908 -> 335
09:46:45.908 -> 338
09:46:45.908 -> 343
09:46:45.908 -> 340
09:46:45.908 -> 338
09:46:45.949 -> 343
09:46:45.949 -> 349
09:46:45.949 -> 347
09:46:45.949 -> 344
09:46:45.949 -> 349
09:46:45.949 -> 352
09:46:45.949 -> 351
09:46:45.988 -> 355
09:46:45.988 -> 359
09:46:45.988 -> 362
09:46:45.988 -> 362
09:46:45.988 -> 366
09:46:45.988 -> 376
09:46:45.988 -> 379
09:46:45.988 -> 376
09:46:46.028 -> 379
09:46:46.028 -> 384
09:46:46.028 -> 384
09:46:46.028 -> 381
09:46:46.028 -> 381
09:46:46.028 -> 382
09:46:46.028 -> 375
09:46:46.028 -> 364
09:46:46.069 -> 358
09:46:46.069 -> 352
09:46:46.069 -> 341
09:46:46.069 -> 331
09:46:46.069 -> 328
09:46:46.069 -> 328
09:46:46.069 -> 320
09:46:46.069 -> 311
09:46:46.109 -> 308
09:46:46.109 -> 312
09:46:46.109 -> 308
09:46:46.109 -> 304
09:46:46.109 -> 306
09:46:46.109 -> 308
09:46:46.109 -> 304
09:46:46.109 -> 300
09:46:46.149 -> 304
09:46:46.149 -> 311
09:46:46.149 -> 306
09:46:46.149 -> 301
09:46:46.149 -> 305
09:46:46.149 -> 309
09:46:46.149 -> 306
09:46:46.189 -> 303
09:46:46.189 -> 305
09:46:46.189 -> 306
09:46:46.189 -> 306
09:46:46.189 -> 305
09:46:46.189 -> 308
09:46:46.189 -> 309
09:46:46.229 -> 308
09:46:46.229 -> 307
09:46:46.229 -> 308
09:46:46.229 -> 309
09:46:46.229 -> 303
09:46:46.229 -> 305
09:46:46.229 -> 311
09:46:46.229 -> 308
09:46:46.268 -> 306
09:46:46.268 -> 309
09:46:46.268 -> 308
09:46:46.268 -> 307
09:46:46.268 -> 311
09:46:46.268 -> 316
09:46:46.268 -> 314
09:46:46.268 -> 310
09:46:46.308 -> 312
09:46:46.308 -> 315
09:46:46.308 -> 313
09:46:46.308 -> 310
09:46:46.308 -> 311
09:46:46.308 -> 315
09:46:46.308 -> 313
09:46:46.346 -> 309
09:46:46.346 -> 310
09:46:46.346 -> 314
09:46:46.346 -> 310
09:46:46.346 -> 308
09:46:46.346 -> 311
09:46:46.346 -> 314
