09:45:57.111 -> 396
09:45:57.111 -> 384
09:45:57.111 -> 362
09:45:57.111 -> 366
09:45:57.111 -> 411
09:45:57.111 -> 364
09:45:57.111 -> 352
09:45:57.111 -> 371
09:45:57.111 -> 380
09:45:57.111 -> 370
09:45:57.111 -> 393
09:45:57.111 -> 378
09:45:57.128 -> 394
09:45:57.128 -> 365
09:45:57.128 -> 395
09:45:57.128 -> 403
09:45:57.128 -> 381
09:45:57.151 -> 366
09:45:57.151 -> 392
09:45:57.151 -> 401
09:45:57.151 -> 389
09:45:57.151 -> 391
09:45:57.189 -> 395
09:45:57.189 -> 395
09:45:57.189 -> 411
09:45:57.189 -> 408
09:45:57.189 -> 411
09:45:57.189 -> 411
09:45:57.189 -> 391
09:45:57.233 -> 401
09:45:57.233 -> 425
09:45:57.233 -> 408
09:45:57.233 -> 400
09:45:57.233 -> 407
09:45:57.233 -> 405
09:45:57.233 -> 390
09:45:57.233 -> 376
09:45:57.233 -> 369
09:45:57.265 -> 380
09:45:57.265 -> 364
09:45:57.265 -> 346
09:45:57.265 -> 334
09:45:57.265 -> 343
09:45:57.265 -> 334
09:45:57.313 -> 330
09:45:57.313 -> 330
09:45:57.313 -> 348
09:45:57.313 -> 331
09:45:57.313 -> 302
09:45:57.313 -> 315
09:45:57.313 -> 331
09:45:57.313 -> 319
09:45:57.313 -> 311
09:45:57.313 -> 326
09:45:57.360 -> 328
09:45:57.360 -> 334
09:45:57.360 -> 340
09:45:57.360 -> 346
09:45:57.360 -> 332
09:45:57.360 -> 322
09:45:57.360 -> 315
09:45:57.360 -> 334
09:45:57.407 -> 349
09:45:57.407 -> 308
09:45:57.407 -> 301
09:45:57.407 -> 327
09:45:57.407 -> 340
09:45:57.407 -> 323
09:45:57.407 -> 306
09:45:57.407 -> 314
09:45:57.407 -> 344
09:45:57.407 -> 333
09:45:57.453 -> 319
09:45:57.453 -> 326
09:45:57.453 -> 333
09:45:57.453 -> 327
09:45:57.453 -> 333
09:45:57.453 -> 336
09:45:57.453 -> 320
09:45:57.453 -> 332
09:45:57.501 -> 353
09:45:57.501 -> 340
09:45:57.501 -> 305
09:45:57.501 -> 302
09:45:57.501 -> 337
09:45:57.501 -> 337
09:45:57.501 -> 322
09:45:57.501 -> 323
09:45:57.501 -> 321
09:45:57.501 -> 311
09:45:57.547 -> 311
09:45:57.547 -> 329
09:45:57.547 -> 353
09:45:57.547 -> 336
09:45:57.547 -> 303
09:45:57.547 -> 323
09:45:57.547 -> 347
09:45:57.547 -> 314
09:45:57.547 -> 296
09:45:57.594 -> 325
09:45:57.594 -> 342
09:45:57.594 -> 320
09:45:57.594 -> 313
09:45:57.594 -> 338
09:45:57.594 -> 340
09:45:57.594 -> 308
09:45:57.594 -> 308
09:45:57.640 -> 342
09:45:57.640 -> 323
09:45:57.640 -> 318
09:45:57.640 -> 321
09:45:57.640 -> 317
09:45:57.640 -> 317
09:45:57.640 -> 305
09:45:57.640 -> 321
09:45:57.640 -> 325
09:45:57.640 -> 321
09:45:57.685 -> 294
09:45:57.685 -> 314
09:45:57.685 -> 335
09:45:57.685 -> 323
09:45:57.685 -> 303
09:45:57.685 -> 313
09:45:57.685 -> 327
09:45:57.685 -> 301
09:45:57.732 -> 286
09:45:57.732 -> 321
09:45:57.732 -> 335
09:45:57.732 -> 319
09:45:57.732 -> 323
09:45:57.732 -> 317
09:45:57.732 -> 329
09:45:57.732 -> 325
09:45:57.732 -> 309
09:45:57.779 -> 323
09:45:57.779 -> 316
09:45:57.779 -> 299
09:45:57.779 -> 301
09:45:57.779 -> 331
09:45:57.779 -> 339
09:45:57.779 -> 310
09:45:57.779 -> 301
09:45:57.779 -> 328
09:45:57.824 -> 299
09:45:57.824 -> 306
09:45:57.824 -> 328
09:45:57.824 -> 324
09:45:57.824 -> 297
09:45:57.824 -> 315
09:45:57.824 -> 338
09:45:57.824 -> 335
09:45:57.824 -> 329
09:45:57.871 -> 304
09:45:57.871 -> 336
09:45:57.871 -> 333
09:45:57.871 -> 309
09:45:57.871 -> 310
09:45:57.871 -> 317
09:45:57.871 -> 330
09:45:57.871 -> 321
09:45:57.871 -> 326
09:45:57.921 -> 328
09:45:57.921 -> 327
09:45:57.921 -> 318
09:45:57.921 -> 316
09:45:57.921 -> 335
09:45:57.921 -> 331
09:45:57.921 -> 315
09:45:57.921 -> 334
09:45:57.921 -> 345
09:45:57.968 -> 327
09:45:57.968 -> 319
09:45:57.968 -> 336
09:45:57.968 -> 340
09:45:57.968 -> 305
09:45:57.968 -> 314
09:45:57.968 -> 332
09:45:57.968 -> 337
09:45:57.968 -> 311
09:45:57.968 -> 306
09:45:58.001 -> 322
09:45:58.001 -> 305
09:45:58.001 -> 314
09:45:58.001 -> 323
09:45:58.001 -> 329
09:45:58.001 -> 320
09:45:58.041 -> 300
09:45:58.041 -> 319
09:45:58.041 -> 348
09:45:58.041 -> 376
09:45:58.041 -> 402
09:45:58.041 -> 418
09:45:58.041 -> 422
09:45:58.041 -> 364
09:45:58.083 -> 318
09:45:58.083 -> 274
09:45:58.083 -> 272
09:45:58.083 -> 287
09:45:58.083 -> 291
09:45:58.083 -> 321
09:45:58.083 -> 343
09:45:58.083 -> 314
09:45:58.130 -> 302
09:45:58.130 -> 315
09:45:58.130 -> 330
09:45:58.130 -> 324
09:45:58.130 -> 316
09:45:58.130 -> 329
09:45:58.130 -> 302
09:45:58.130 -> 311
09:45:58.177 -> 323
09:45:58.177 -> 338
09:45:58.177 -> 332
09:45:58.177 -> 315
09:45:58.177 -> 307
09:45:58.177 -> 305
09:45:58.177 -> 325
09:45:58.177 -> 318
09:45:58.177 -> 335
09:45:58.177 -> 322
09:45:58.221 -> 313
09:45:58.221 -> 318
09:45:58.221 -> 337
09:45:58.221 -> 328
09:45:58.221 -> 324
09:45:58.221 -> 335
09:45:58.221 -> 346
09:45:58.221 -> 333
09:45:58.261 -> 329
09:45:58.261 -> 348
09:45:58.261 -> 356
09:45:58.261 -> 341
09:45:58.261 -> 340
09:45:58.261 -> 361
09:45:58.261 -> 370
09:45:58.301 -> 369
09:45:58.301 -> 363
09:45:58.301 -> 344
09:45:58.301 -> 375
09:45:58.301 -> 372
09:45:58.301 -> 355
09:45:58.301 -> 375
09:45:58.301 -> 382
09:45:58.337 -> 361
09:45:58.337 -> 366
09:45:58.337 -> 380
09:45:58.337 -> 403
09:45:58.337 -> 365
09:45:58.337 -> 354
09:45:58.337 -> 354
09:45:58.372 -> 356
09:45:58.372 -> 342
09:45:58.372 -> 324
09:45:58.372 -> 337
09:45:58.372 -> 333
09:45:58.372 -> 300
09:45:58.372 -> 313
09:45:58.411 -> 326
09:45:58.411 -> 316
09:45:58.411 -> 290
09:45:58.411 -> 315
09:45:58.411 -> 345
09:45:58.411 -> 348
09:45:58.411 -> 301
09:45:58.411 -> 301
09:45:58.451 -> 339
09:45:58.451 -> 326
09:45:58.451 -> 310
09:45:58.451 -> 318
09:45:58.451 -> 350
09:45:58.451 -> 316
09:45:58.451 -> 317
09:45:58.491 -> 336
09:45:58.491 -> 320
09:45:58.491 -> 306
09:45:58.491 -> 331
09:45:58.491 -> 332
09:45:58.491 -> 306
09:45:58.491 -> 303
09:45:58.491 -> 330
09:45:58.531 -> 329
09:45:58.531 -> 323
09:45:58.531 -> 310
09:45:58.531 -> 341
09:45:58.531 -> 336
09:45:58.531 -> 294
09:45:58.531 -> 316
09:45:58.567 -> 360
09:45:58.567 -> 348
09:45:58.567 -> 313
09:45:58.567 -> 298
09:45:58.567 -> 332
09:45:58.567 -> 310
09:45:58.567 -> 265
09:45:58.567 -> 239
09:45:58.608 -> 243
09:45:58.608 -> 225
09:45:58.608 -> 221
09:45:58.608 -> 218
09:45:58.608 -> 247
09:45:58.608 -> 229
09:45:58.608 -> 204
09:45:58.660 -> 250
09:45:58.660 -> 287
09:45:58.660 -> 225
09:45:58.660 -> 109
09:45:58.660 -> 136
09:45:58.660 -> 200
09:45:58.660 -> 204
09:45:58.660 -> 179
09:45:58.660 -> 173
09:45:58.660 -> 189
09:45:58.660 -> 220
09:45:58.707 -> 228
09:45:58.707 -> 256
09:45:58.707 -> 257
09:45:58.707 -> 230
09:45:58.707 -> 173
09:45:58.707 -> 164
09:45:58.707 -> 200
09:45:58.707 -> 202
09:45:58.741 -> 184
09:45:58.741 -> 186
09:45:58.741 -> 229
09:45:58.741 -> 249
09:45:58.741 -> 221
09:45:58.741 -> 218
09:45:58.741 -> 184
09:45:58.781 -> 129
09:45:58.781 -> 127
09:45:58.781 -> 172
09:45:58.781 -> 176
09:45:58.781 -> 159
09:45:58.781 -> 173
09:45:58.781 -> 212
09:45:58.821 -> 201
09:45:58.821 -> 231
09:45:58.821 -> 294
09:45:58.821 -> 288
09:45:58.821 -> 179
09:45:58.821 -> 167
09:45:58.821 -> 244
09:45:58.821 -> 288
09:45:58.861 -> 256
09:45:58.861 -> 247
09:45:58.861 -> 242
09:45:58.861 -> 236
09:45:58.861 -> 245
09:45:58.861 -> 258
09:45:58.861 -> 210
09:45:58.861 -> 168
09:45:58.901 -> 139
09:45:58.901 -> 98
09:45:58.901 -> 87
09:45:58.901 -> 91
09:45:58.901 -> 52
09:45:58.901 -> 34
09:45:58.901 -> 44
09:45:58.901 -> 27
09:45:58.901 -> 3
09:45:58.901 -> 3
09:45:58.941 -> 27
09:45:58.941 -> 24
09:45:58.941 -> 0
09:45:58.941 -> 0
09:45:58.941 -> 0
09:45:58.941 -> 0
09:45:58.941 -> 0
09:45:58.941 -> 0
09:45:58.941 -> 0
09:45:58.941 -> 0
09:45:58.941 -> 0
09:45:58.981 -> 0
09:45:58.981 -> 4
09:45:58.981 -> 71
09:45:58.981 -> 159
09:45:58.981 -> 221
09:45:58.981 -> 251
09:45:58.981 -> 262
09:45:58.981 -> 299
09:45:58.981 -> 354
09:45:59.021 -> 395
09:45:59.021 -> 445
09:45:59.021 -> 465
09:45:59.021 -> 416
09:45:59.021 -> 373
09:45:59.021 -> 399
09:45:59.021 -> 472
09:45:59.021 -> 538
09:45:59.061 -> 543
09:45:59.061 -> 510
09:45:59.061 -> 532
09:45:59.061 -> 567
09:45:59.061 -> 568
09:45:59.061 -> 558
09:45:59.061 -> 554
09:45:59.061 -> 557
09:45:59.101 -> 520
09:45:59.101 -> 471
09:45:59.101 -> 461
09:45:59.101 -> 506
09:45:59.101 -> 537
09:45:59.101 -> 565
09:45:59.101 -> 637
09:45:59.149 -> 642
09:45:59.149 -> 641
09:45:59.149 -> 642
09:45:59.149 -> 642
09:45:59.149 -> 642
09:45:59.149 -> 642
09:45:59.149 -> 642
09:45:59.149 -> 642
09:45:59.149 -> 642
09:45:59.149 -> 640
09:45:59.192 -> 638
09:45:59.192 -> 637
09:45:59.192 -> 628
09:45:59.192 -> 582
09:45:59.192 -> 547
09:45:59.192 -> 560
09:45:59.192 -> 512
09:45:59.192 -> 464
09:45:59.231 -> 535
09:45:59.231 -> 632
09:45:59.231 -> 639
09:45:59.231 -> 639
09:45:59.231 -> 641
09:45:59.231 -> 642
09:45:59.231 -> 642
09:45:59.271 -> 642
09:45:59.271 -> 642
09:45:59.271 -> 640
09:45:59.271 -> 615
09:45:59.271 -> 583
09:45:59.271 -> 597
09:45:59.271 -> 640
09:45:59.271 -> 641
09:45:59.311 -> 641
09:45:59.311 -> 642
09:45:59.311 -> 643
09:45:59.311 -> 642
09:45:59.311 -> 643
09:45:59.311 -> 643
09:45:59.311 -> 643
09:45:59.311 -> 644
09:45:59.351 -> 644
09:45:59.351 -> 643
09:45:59.351 -> 643
09:45:59.351 -> 644
09:45:59.351 -> 643
09:45:59.351 -> 643
09:45:59.351 -> 644
09:45:59.351 -> 643
09:45:59.391 -> 644
09:45:59.391 -> 644
09:45:59.391 -> 644
09:45:59.391 -> 644
09:45:59.391 -> 644
09:45:59.391 -> 644
09:45:59.391 -> 644
09:45:59.431 -> 644
09:45:59.431 -> 644
09:45:59.431 -> 643
09:45:59.431 -> 644
09:45:59.431 -> 643
09:45:59.431 -> 643
09:45:59.431 -> 643
09:45:59.431 -> 642
09:45:59.471 -> 640
09:45:59.471 -> 595
09:45:59.471 -> 551
09:45:59.471 -> 611
09:45:59.471 -> 638
09:45:59.471 -> 632
09:45:59.471 -> 577
09:45:59.471 -> 471
09:45:59.511 -> 377
09:45:59.511 -> 445
09:45:59.511 -> 538
09:45:59.511 -> 516
09:45:59.511 -> 391
09:45:59.511 -> 333
09:45:59.511 -> 355
09:45:59.511 -> 347
09:45:59.551 -> 300
09:45:59.551 -> 279
09:45:59.551 -> 280
09:45:59.551 -> 297
09:45:59.551 -> 323
09:45:59.551 -> 338
09:45:59.551 -> 349
09:45:59.592 -> 331
09:45:59.592 -> 280
09:45:59.592 -> 260
09:45:59.592 -> 317
09:45:59.592 -> 302
09:45:59.592 -> 345
09:45:59.592 -> 447
09:45:59.592 -> 444
09:45:59.641 -> 430
09:45:59.641 -> 411
09:45:59.641 -> 375
09:45:59.641 -> 340
09:45:59.641 -> 324
09:45:59.641 -> 327
09:45:59.641 -> 323
09:45:59.641 -> 303
09:45:59.641 -> 263
09:45:59.681 -> 279
09:45:59.681 -> 285
09:45:59.681 -> 254
09:45:59.681 -> 218
09:45:59.681 -> 205
09:45:59.681 -> 218
09:45:59.681 -> 210
09:45:59.681 -> 185
09:45:59.731 -> 197
09:45:59.731 -> 225
09:45:59.731 -> 227
09:45:59.731 -> 234
09:45:59.731 -> 257
09:45:59.731 -> 286
09:45:59.731 -> 281
09:45:59.731 -> 259
09:45:59.731 -> 260
09:45:59.771 -> 268
09:45:59.771 -> 253
09:45:59.771 -> 243
09:45:59.771 -> 249
09:45:59.771 -> 250
09:45:59.771 -> 237
09:45:59.771 -> 230
09:45:59.771 -> 242
09:45:59.811 -> 250
09:45:59.811 -> 241
09:45:59.811 -> 242
09:45:59.811 -> 257
09:45:59.811 -> 259
09:45:59.811 -> 241
09:45:59.811 -> 238
09:45:59.811 -> 257
09:45:59.851 -> 265
09:45:59.851 -> 260
09:45:59.851 -> 271
09:45:59.851 -> 308
09:45:59.851 -> 331
09:45:59.851 -> 327
09:45:59.851 -> 313
09:45:59.851 -> 299
09:45:59.891 -> 260
09:45:59.891 -> 207
09:45:59.891 -> 172
09:45:59.891 -> 188
09:45:59.891 -> 207
09:45:59.891 -> 208
09:45:59.891 -> 213
09:45:59.931 -> 222
09:45:59.931 -> 211
09:45:59.931 -> 197
09:45:59.931 -> 201
09:45:59.931 -> 207
09:45:59.931 -> 200
09:45:59.931 -> 196
09:45:59.931 -> 210
09:45:59.971 -> 219
09:45:59.971 -> 210
09:45:59.971 -> 205
09:45:59.971 -> 217
09:45:59.971 -> 225
09:45:59.971 -> 217
09:45:59.971 -> 214
09:45:59.971 -> 224
09:46:00.011 -> 227
09:46:00.011 -> 215
09:46:00.011 -> 212
09:46:00.011 -> 225
09:46:00.011 -> 226
09:46:00.011 -> 214
09:46:00.011 -> 213
09:46:00.011 -> 226
09:46:00.051 -> 226
09:46:00.051 -> 213
09:46:00.051 -> 213
09:46:00.051 -> 225
09:46:00.051 -> 222
09:46:00.051 -> 210
09:46:00.051 -> 214
09:46:00.101 -> 226
09:46:00.101 -> 221
09:46:00.101 -> 210
09:46:00.101 -> 216
09:46:00.101 -> 231
09:46:00.101 -> 226
09:46:00.101 -> 217
09:46:00.101 -> 226
09:46:00.101 -> 239
09:46:00.101 -> 233
09:46:00.150 -> 224
09:46:00.150 -> 232
09:46:00.150 -> 244
09:46:00.150 -> 234
09:46:00.150 -> 224
09:46:00.150 -> 229
09:46:00.150 -> 231
09:46:00.150 -> 214
09:46:00.150 -> 200
09:46:00.191 -> 203
09:46:00.191 -> 202
09:46:00.191 -> 186
09:46:00.191 -> 178
09:46:00.191 -> 187
09:46:00.191 -> 188
09:46:00.191 -> 173
09:46:00.191 -> 168
09:46:00.231 -> 182
09:46:00.231 -> 184
09:46:00.231 -> 171
09:46:00.231 -> 169
09:46:00.231 -> 181
09:46:00.231 -> 183
09:46:00.231 -> 174
09:46:00.271 -> 178
09:46:00.271 -> 191
09:46:00.271 -> 191
09:46:00.271 -> 178
09:46:00.271 -> 183
09:46:00.271 -> 197
09:46:00.271 -> 196
09:46:00.271 -> 188
09:46:00.311 -> 195
09:46:00.311 -> 210
09:46:00.311 -> 206
09:46:00.311 -> 197
09:46:00.311 -> 204
09:46:00.311 -> 218
09:46:00.311 -> 211
09:46:00.311 -> 200
09:46:00.351 -> 209
09:46:00.351 -> 222
09:46:00.351 -> 213
09:46:00.351 -> 205
09:46:00.351 -> 216
09:46:00.351 -> 225
09:46:00.351 -> 215
09:46:00.351 -> 208
09:46:00.391 -> 220
09:46:00.391 -> 228
09:46:00.391 -> 215
09:46:00.391 -> 210
09:46:00.391 -> 222
09:46:00.391 -> 229
09:46:00.391 -> 217
09:46:00.431 -> 214
09:46:00.431 -> 227
09:46:00.431 -> 232
09:46:00.431 -> 219
09:46:00.431 -> 217
09:46:00.431 -> 233
09:46:00.431 -> 236
09:46:00.431 -> 224
09:46:00.466 -> 226
09:46:00.466 -> 242
09:46:00.466 -> 242
09:46:00.466 -> 232
09:46:00.466 -> 237
09:46:00.466 -> 253
09:46:00.466 -> 248
09:46:00.501 -> 238
09:46:00.501 -> 246
09:46:00.501 -> 262
09:46:00.501 -> 256
09:46:00.501 -> 247
09:46:00.501 -> 257
09:46:00.541 -> 273
09:46:00.541 -> 268
09:46:00.541 -> 258
09:46:00.541 -> 262
09:46:00.541 -> 267
09:46:00.541 -> 253
09:46:00.541 -> 242
09:46:00.541 -> 249
09:46:00.587 -> 259
09:46:00.587 -> 249
09:46:00.587 -> 242
09:46:00.587 -> 253
09:46:00.587 -> 261
09:46:00.587 -> 250
09:46:00.587 -> 242
09:46:00.587 -> 254
09:46:00.587 -> 258
09:46:00.634 -> 243
09:46:00.634 -> 239
09:46:00.634 -> 263
09:46:00.634 -> 291
09:46:00.634 -> 311
09:46:00.634 -> 340
09:46:00.634 -> 354
09:46:00.634 -> 332
09:46:00.634 -> 289
09:46:00.680 -> 255
09:46:00.680 -> 224
09:46:00.680 -> 215
09:46:00.680 -> 230
09:46:00.680 -> 252
09:46:00.680 -> 268
09:46:00.680 -> 268
09:46:00.680 -> 258
09:46:00.680 -> 262
09:46:00.721 -> 274
09:46:00.721 -> 271
09:46:00.721 -> 261
09:46:00.721 -> 268
09:46:00.721 -> 282
09:46:00.721 -> 276
09:46:00.721 -> 266
09:46:00.721 -> 276
09:46:00.761 -> 289
09:46:00.761 -> 282
09:46:00.761 -> 274
09:46:00.761 -> 283
09:46:00.761 -> 295
09:46:00.761 -> 287
09:46:00.761 -> 280
09:46:00.761 -> 291
09:46:00.801 -> 300
09:46:00.801 -> 290
09:46:00.801 -> 284
09:46:00.801 -> 299
09:46:00.801 -> 308
09:46:00.801 -> 297
09:46:00.801 -> 294
09:46:00.841 -> 308
09:46:00.841 -> 314
09:46:00.841 -> 305
09:46:00.841 -> 304
09:46:00.841 -> 321
09:46:00.841 -> 326
09:46:00.841 -> 316
09:46:00.841 -> 318
09:46:00.881 -> 335
09:46:00.881 -> 340
09:46:00.881 -> 330
09:46:00.881 -> 333
09:46:00.881 -> 350
09:46:00.881 -> 350
09:46:00.881 -> 339
09:46:00.881 -> 344
09:46:00.921 -> 359
09:46:00.921 -> 354
09:46:00.921 -> 342
09:46:00.921 -> 344
09:46:00.921 -> 354
09:46:00.921 -> 341
09:46:00.921 -> 324
09:46:00.961 -> 323
09:46:00.961 -> 327
09:46:00.961 -> 312
09:46:00.961 -> 297
09:46:00.961 -> 301
09:46:00.961 -> 308
09:46:00.961 -> 295
09:46:00.961 -> 286
09:46:01.001 -> 296
09:46:01.001 -> 304
09:46:01.001 -> 292
09:46:01.001 -> 285
09:46:01.001 -> 297
09:46:01.001 -> 304
09:46:01.001 -> 292
09:46:01.041 -> 286
09:46:01.041 -> 300
09:46:01.041 -> 306
09:46:01.041 -> 293
09:46:01.041 -> 291
09:46:01.041 -> 306
09:46:01.041 -> 308
09:46:01.041 -> 295
09:46:01.081 -> 296
09:46:01.081 -> 310
09:46:01.081 -> 311
09:46:01.081 -> 298
09:46:01.081 -> 298
09:46:01.081 -> 312
09:46:01.081 -> 312
09:46:01.081 -> 300
09:46:01.121 -> 304
09:46:01.121 -> 319
09:46:01.121 -> 314
09:46:01.121 -> 303
09:46:01.121 -> 307
09:46:01.121 -> 321
09:46:01.121 -> 316
09:46:01.121 -> 305
09:46:01.161 -> 311
09:46:01.161 -> 323
09:46:01.161 -> 316
09:46:01.161 -> 305
09:46:01.161 -> 314
09:46:01.161 -> 325
09:46:01.161 -> 316
09:46:01.161 -> 308
09:46:01.201 -> 318
09:46:01.201 -> 328
09:46:01.201 -> 318
09:46:01.201 -> 312
09:46:01.201 -> 323
09:46:01.201 -> 330
09:46:01.201 -> 318
09:46:01.241 -> 313
09:46:01.241 -> 327
09:46:01.241 -> 332
09:46:01.241 -> 320
09:46:01.241 -> 315
09:46:01.241 -> 328
09:46:01.241 -> 332
09:46:01.241 -> 320
09:46:01.281 -> 317
09:46:01.281 -> 331
09:46:01.281 -> 331
09:46:01.281 -> 318
09:46:01.281 -> 318
09:46:01.281 -> 331
09:46:01.281 -> 330
09:46:01.281 -> 317
09:46:01.321 -> 319
09:46:01.321 -> 334
09:46:01.321 -> 330
09:46:01.321 -> 318
09:46:01.321 -> 322
09:46:01.321 -> 335
09:46:01.321 -> 330
09:46:01.321 -> 318
09:46:01.361 -> 324
09:46:01.361 -> 338
09:46:01.361 -> 331
09:46:01.361 -> 320
09:46:01.361 -> 329
09:46:01.361 -> 339
09:46:01.361 -> 328
09:46:01.401 -> 319
09:46:01.401 -> 328
09:46:01.401 -> 341
09:46:01.401 -> 334
09:46:01.401 -> 326
09:46:01.401 -> 335
09:46:01.401 -> 341
09:46:01.401 -> 333
09:46:01.441 -> 328
09:46:01.441 -> 340
09:46:01.441 -> 346
09:46:01.441 -> 335
09:46:01.441 -> 335
09:46:01.441 -> 351
09:46:01.441 -> 354
09:46:01.481 -> 335
09:46:01.481 -> 328
09:46:01.481 -> 336
09:46:01.481 -> 334
09:46:01.481 -> 318
09:46:01.481 -> 317
09:46:01.481 -> 331
09:46:01.481 -> 331
09:46:01.521 -> 317
09:46:01.521 -> 318
09:46:01.521 -> 332
09:46:01.521 -> 328
09:46:01.521 -> 316
09:46:01.521 -> 328
09:46:01.521 -> 332
09:46:01.561 -> 340
09:46:01.561 -> 380
09:46:01.561 -> 432
09:46:01.561 -> 439
09:46:01.561 -> 407
09:46:01.561 -> 381
09:46:01.561 -> 357
09:46:01.561 -> 302
09:46:01.601 -> 273
09:46:01.601 -> 304
09:46:01.601 -> 334
09:46:01.601 -> 328
09:46:01.601 -> 321
09:46:01.601 -> 332
09:46:01.601 -> 340
09:46:01.601 -> 329
09:46:01.636 -> 322
09:46:01.636 -> 334
09:46:01.636 -> 340
09:46:01.636 -> 328
09:46:01.636 -> 323
09:46:01.636 -> 337
09:46:01.671 -> 341
09:46:01.671 -> 328
09:46:01.671 -> 326
09:46:01.671 -> 340
09:46:01.671 -> 343
09:46:01.671 -> 330
09:46:01.671 -> 329
09:46:01.706 -> 344
09:46:01.706 -> 345
09:46:01.706 -> 333
09:46:01.706 -> 335
09:46:01.706 -> 350
09:46:01.706 -> 348
09:46:01.706 -> 337
09:46:01.706 -> 342
09:46:01.741 -> 357
09:46:01.741 -> 354
09:46:01.741 -> 344
09:46:01.741 -> 352
09:46:01.741 -> 366
09:46:01.741 -> 362
09:46:01.781 -> 352
09:46:01.781 -> 361
09:46:01.781 -> 376
09:46:01.781 -> 369
09:46:01.781 -> 362
09:46:01.781 -> 372
09:46:01.781 -> 384
09:46:01.781 -> 377
09:46:01.821 -> 371
09:46:01.821 -> 383
09:46:01.821 -> 393
09:46:01.821 -> 383
09:46:01.821 -> 376
09:46:01.821 -> 386
09:46:01.821 -> 393
09:46:01.821 -> 378
09:46:01.861 -> 367
09:46:01.861 -> 375
09:46:01.861 -> 351
09:46:01.861 -> 340
09:46:01.861 -> 348
09:46:01.861 -> 344
09:46:01.861 -> 327
09:46:01.901 -> 323
09:46:01.901 -> 335
09:46:01.901 -> 332
09:46:01.901 -> 318
09:46:01.901 -> 318
09:46:01.901 -> 331
09:46:01.901 -> 329
09:46:01.901 -> 314
09:46:01.941 -> 317
09:46:01.941 -> 332
09:46:01.941 -> 328
09:46:01.941 -> 315
09:46:01.941 -> 319
09:46:01.941 -> 331
09:46:01.941 -> 326
09:46:01.981 -> 314
09:46:01.981 -> 321
09:46:01.981 -> 334
09:46:01.981 -> 326
09:46:01.981 -> 316
09:46:01.981 -> 323
09:46:01.981 -> 335
09:46:01.981 -> 326
09:46:02.021 -> 318
09:46:02.021 -> 327
09:46:02.021 -> 337
09:46:02.021 -> 324
09:46:02.021 -> 317
09:46:02.021 -> 330
09:46:02.021 -> 337
09:46:02.061 -> 325
09:46:02.061 -> 318
09:46:02.061 -> 332
09:46:02.061 -> 338
09:46:02.061 -> 325
09:46:02.061 -> 320
09:46:02.061 -> 334
09:46:02.061 -> 338
09:46:02.101 -> 324
09:46:02.101 -> 323
09:46:02.101 -> 337
09:46:02.101 -> 340
09:46:02.101 -> 326
09:46:02.101 -> 325
09:46:02.101 -> 340
09:46:02.101 -> 341
09:46:02.141 -> 327
09:46:02.141 -> 328
09:46:02.141 -> 343
09:46:02.141 -> 341
09:46:02.141 -> 329
09:46:02.141 -> 332
09:46:02.141 -> 345
09:46:02.141 -> 338
09:46:02.181 -> 327
09:46:02.181 -> 333
09:46:02.181 -> 346
09:46:02.181 -> 340
09:46:02.181 -> 328
09:46:02.181 -> 346
09:46:02.181 -> 336
09:46:02.221 -> 327
09:46:02.221 -> 337
09:46:02.221 -> 347
09:46:02.221 -> 336
09:46:02.221 -> 328
09:46:02.221 -> 339
09:46:02.221 -> 347
09:46:02.221 -> 336
09:46:02.261 -> 329
09:46:02.261 -> 341
09:46:02.261 -> 347
09:46:02.261 -> 335
09:46:02.261 -> 331
09:46:02.261 -> 343
09:46:02.261 -> 348
09:46:02.261 -> 335
09:46:02.301 -> 332
09:46:02.301 -> 345
09:46:02.301 -> 348
09:46:02.301 -> 334
09:46:02.301 -> 333
09:46:02.301 -> 348
09:46:02.301 -> 350
09:46:02.301 -> 338
09:46:02.341 -> 338
09:46:02.341 -> 350
09:46:02.341 -> 349
09:46:02.341 -> 339
09:46:02.341 -> 342
09:46:02.341 -> 357
09:46:02.341 -> 354
09:46:02.341 -> 345
09:46:02.381 -> 354
09:46:02.381 -> 368
09:46:02.381 -> 357
09:46:02.381 -> 340
09:46:02.381 -> 340
09:46:02.381 -> 347
09:46:02.381 -> 336
09:46:02.421 -> 325
09:46:02.421 -> 334
09:46:02.421 -> 346
09:46:02.421 -> 336
09:46:02.421 -> 326
09:46:02.421 -> 336
09:46:02.421 -> 344
09:46:02.421 -> 331
09:46:02.461 -> 321
09:46:02.461 -> 331
09:46:02.461 -> 342
09:46:02.461 -> 347
09:46:02.461 -> 373
09:46:02.461 -> 424
09:46:02.461 -> 455
09:46:02.501 -> 430
09:46:02.501 -> 391
09:46:02.501 -> 369
09:46:02.501 -> 328
09:46:02.501 -> 279
09:46:02.501 -> 290
09:46:02.501 -> 329
09:46:02.501 -> 337
09:46:02.541 -> 326
09:46:02.541 -> 339
09:46:02.541 -> 337
09:46:02.541 -> 324
09:46:02.541 -> 334
09:46:02.541 -> 351
09:46:02.541 -> 334
09:46:02.581 -> 312
09:46:02.581 -> 320
09:46:02.581 -> 337
09:46:02.581 -> 332
09:46:02.581 -> 321
09:46:02.581 -> 328
09:46:02.581 -> 341
09:46:02.581 -> 335
09:46:02.621 -> 325
09:46:02.621 -> 335
09:46:02.621 -> 347
09:46:02.621 -> 338
09:46:02.621 -> 329
09:46:02.621 -> 340
09:46:02.621 -> 351
09:46:02.621 -> 340
09:46:02.661 -> 334
09:46:02.661 -> 348
09:46:02.661 -> 357
09:46:02.661 -> 348
09:46:02.661 -> 344
09:46:02.661 -> 360
09:46:02.661 -> 367
09:46:02.661 -> 355
09:46:02.701 -> 353
09:46:02.701 -> 369
09:46:02.701 -> 374
09:46:02.701 -> 363
09:46:02.701 -> 363
09:46:02.701 -> 379
09:46:02.701 -> 382
09:46:02.741 -> 369
09:46:02.741 -> 370
09:46:02.741 -> 386
09:46:02.741 -> 385
09:46:02.741 -> 373
09:46:02.741 -> 375
09:46:02.741 -> 389
09:46:02.741 -> 384
09:46:02.781 -> 368
09:46:02.781 -> 365
09:46:02.781 -> 370
09:46:02.781 -> 358
09:46:02.781 -> 339
09:46:02.781 -> 338
09:46:02.781 -> 344
09:46:02.781 -> 332
09:46:02.821 -> 316
09:46:02.821 -> 320
09:46:02.821 -> 330
09:46:02.821 -> 318
09:46:02.821 -> 306
09:46:02.821 -> 316
09:46:02.821 -> 325
09:46:02.821 -> 314
09:46:02.861 -> 304
09:46:02.861 -> 315
09:46:02.861 -> 312
09:46:02.861 -> 307
09:46:02.861 -> 321
09:46:02.861 -> 325
09:46:02.861 -> 313
09:46:02.861 -> 308
09:46:02.901 -> 322
09:46:02.901 -> 326
09:46:02.901 -> 313
09:46:02.901 -> 310
09:46:02.901 -> 325
09:46:02.901 -> 325
09:46:02.901 -> 313
09:46:02.936 -> 313
09:46:02.936 -> 327
09:46:02.936 -> 325
09:46:02.936 -> 312
09:46:02.936 -> 313
09:46:02.936 -> 329
09:46:02.936 -> 326
09:46:02.971 -> 313
09:46:02.971 -> 317
09:46:02.971 -> 331
09:46:02.971 -> 326
09:46:02.971 -> 313
09:46:02.971 -> 321
09:46:03.016 -> 334
09:46:03.016 -> 325
09:46:03.016 -> 314
09:46:03.016 -> 324
09:46:03.016 -> 336
09:46:03.016 -> 327
09:46:03.016 -> 317
09:46:03.016 -> 326
09:46:03.016 -> 337
09:46:03.051 -> 327
09:46:03.051 -> 319
09:46:03.051 -> 329
09:46:03.051 -> 339
09:46:03.051 -> 327
09:46:03.051 -> 320
09:46:03.051 -> 334
09:46:03.091 -> 340
09:46:03.091 -> 327
09:46:03.091 -> 324
09:46:03.091 -> 340
09:46:03.091 -> 346
09:46:03.091 -> 331
09:46:03.091 -> 328
09:46:03.091 -> 341
09:46:03.131 -> 346
09:46:03.131 -> 342
09:46:03.131 -> 338
09:46:03.131 -> 343
09:46:03.131 -> 343
09:46:03.131 -> 333
09:46:03.131 -> 335
09:46:03.171 -> 346
09:46:03.171 -> 337
09:46:03.171 -> 320
09:46:03.171 -> 322
09:46:03.171 -> 337
09:46:03.171 -> 333
09:46:03.171 -> 322
09:46:03.171 -> 339
09:46:03.210 -> 332
09:46:03.210 -> 320
09:46:03.210 -> 328
09:46:03.210 -> 339
09:46:03.210 -> 331
09:46:03.210 -> 318
09:46:03.210 -> 331
09:46:03.251 -> 358
09:46:03.251 -> 375
09:46:03.251 -> 393
09:46:03.251 -> 408
09:46:03.251 -> 398
09:46:03.251 -> 361
09:46:03.251 -> 326
09:46:03.251 -> 305
09:46:03.291 -> 299
09:46:03.291 -> 312
09:46:03.291 -> 325
09:46:03.291 -> 334
09:46:03.291 -> 336
09:46:03.291 -> 329
09:46:03.291 -> 330
09:46:03.291 -> 345
09:46:03.331 -> 348
09:46:03.331 -> 335
09:46:03.331 -> 335
09:46:03.331 -> 351
09:46:03.331 -> 353
09:46:03.331 -> 340
09:46:03.331 -> 341
09:46:03.371 -> 356
09:46:03.371 -> 353
09:46:03.371 -> 341
09:46:03.371 -> 345
09:46:03.371 -> 359
09:46:03.371 -> 356
09:46:03.371 -> 345
09:46:03.371 -> 350
09:46:03.411 -> 364
09:46:03.411 -> 357
09:46:03.411 -> 345
09:46:03.411 -> 353
09:46:03.411 -> 370
09:46:03.411 -> 367
09:46:03.411 -> 363
09:46:03.411 -> 361
09:46:03.451 -> 364
09:46:03.451 -> 357
09:46:03.451 -> 354
09:46:03.451 -> 370
09:46:03.451 -> 382
09:46:03.451 -> 371
09:46:03.451 -> 365
09:46:03.451 -> 380
09:46:03.491 -> 391
09:46:03.491 -> 382
09:46:03.491 -> 378
09:46:03.491 -> 393
09:46:03.491 -> 402
09:46:03.491 -> 389
09:46:03.491 -> 385
09:46:03.531 -> 399
09:46:03.531 -> 404
09:46:03.531 -> 390
09:46:03.531 -> 385
09:46:03.531 -> 375
09:46:03.531 -> 358
09:46:03.531 -> 355
09:46:03.531 -> 364
09:46:03.571 -> 357
09:46:03.571 -> 337
09:46:03.571 -> 334
09:46:03.571 -> 346
09:46:03.571 -> 339
09:46:03.571 -> 326
09:46:03.571 -> 329
09:46:03.571 -> 343
09:46:03.611 -> 338
09:46:03.611 -> 323
09:46:03.611 -> 327
09:46:03.611 -> 342
09:46:03.611 -> 335
09:46:03.611 -> 327
09:46:03.611 -> 342
09:46:03.611 -> 343
09:46:03.651 -> 324
09:46:03.651 -> 317
09:46:03.651 -> 332
09:46:03.651 -> 343
09:46:03.651 -> 333
09:46:03.651 -> 324
09:46:03.651 -> 336
09:46:03.691 -> 345
09:46:03.691 -> 332
09:46:03.691 -> 325
09:46:03.691 -> 339
09:46:03.691 -> 345
09:46:03.691 -> 330
09:46:03.691 -> 325
09:46:03.691 -> 340
09:46:03.731 -> 345
09:46:03.731 -> 334
09:46:03.731 -> 330
09:46:03.731 -> 343
09:46:03.731 -> 345
09:46:03.731 -> 331
09:46:03.731 -> 329
09:46:03.771 -> 345
09:46:03.771 -> 346
09:46:03.771 -> 334
09:46:03.771 -> 342
09:46:03.771 -> 360
09:46:03.771 -> 345
09:46:03.771 -> 328
09:46:03.771 -> 336
09:46:03.811 -> 357
09:46:03.811 -> 356
09:46:03.811 -> 343
09:46:03.811 -> 350
09:46:03.811 -> 365
09:46:03.811 -> 362
09:46:03.811 -> 355
09:46:03.811 -> 362
09:46:03.851 -> 372
09:46:03.851 -> 359
09:46:03.851 -> 344
09:46:03.851 -> 350
09:46:03.851 -> 348
09:46:03.851 -> 337
09:46:03.851 -> 349
09:46:03.891 -> 359
09:46:03.891 -> 354
09:46:03.891 -> 338
09:46:03.891 -> 340
09:46:03.891 -> 348
09:46:03.891 -> 339
09:46:03.891 -> 334
09:46:03.891 -> 345
09:46:03.931 -> 351
09:46:03.931 -> 350
09:46:03.931 -> 371
09:46:03.931 -> 412
09:46:03.931 -> 420
09:46:03.931 -> 386
09:46:03.931 -> 364
09:46:03.931 -> 357
09:46:03.971 -> 330
09:46:03.971 -> 292
09:46:03.971 -> 300
09:46:03.971 -> 340
09:46:03.971 -> 356
09:46:03.971 -> 350
09:46:03.971 -> 350
09:46:03.971 -> 354
09:46:04.011 -> 345
09:46:04.011 -> 337
09:46:04.011 -> 346
09:46:04.011 -> 362
09:46:04.011 -> 355
09:46:04.011 -> 343
09:46:04.011 -> 350
09:46:04.051 -> 364
09:46:04.051 -> 357
09:46:04.051 -> 347
09:46:04.051 -> 356
09:46:04.051 -> 365
09:46:04.051 -> 356
09:46:04.051 -> 346
09:46:04.051 -> 359
09:46:04.091 -> 367
09:46:04.091 -> 356
09:46:04.091 -> 350
09:46:04.091 -> 363
09:46:04.091 -> 370
09:46:04.091 -> 363
09:46:04.091 -> 367
09:46:04.091 -> 371
09:46:04.131 -> 367
09:46:04.131 -> 356
09:46:04.131 -> 359
09:46:04.131 -> 373
09:46:04.131 -> 380
09:46:04.131 -> 370
09:46:04.131 -> 369
09:46:04.131 -> 387
09:46:04.171 -> 391
09:46:04.171 -> 378
09:46:04.171 -> 379
09:46:04.171 -> 396
09:46:04.171 -> 396
09:46:04.171 -> 383
09:46:04.171 -> 400
09:46:04.211 -> 395
09:46:04.211 -> 382
09:46:04.211 -> 389
09:46:04.211 -> 409
09:46:04.211 -> 386
09:46:04.211 -> 354
09:46:04.211 -> 354
09:46:04.211 -> 364
09:46:04.251 -> 351
09:46:04.251 -> 335
09:46:04.251 -> 340
09:46:04.251 -> 349
09:46:04.251 -> 335
09:46:04.251 -> 322
09:46:04.251 -> 330
09:46:04.291 -> 340
09:46:04.291 -> 328
09:46:04.291 -> 320
09:46:04.291 -> 331
09:46:04.291 -> 338
09:46:04.291 -> 325
09:46:04.291 -> 319
09:46:04.291 -> 332
09:46:04.331 -> 337
09:46:04.331 -> 324
09:46:04.331 -> 321
09:46:04.331 -> 335
09:46:04.331 -> 338
09:46:04.331 -> 326
09:46:04.331 -> 332
09:46:04.371 -> 337
09:46:04.371 -> 329
09:46:04.371 -> 317
09:46:04.371 -> 321
09:46:04.371 -> 338
09:46:04.371 -> 337
09:46:04.371 -> 322
09:46:04.371 -> 326
09:46:04.411 -> 341
09:46:04.411 -> 337
09:46:04.411 -> 324
09:46:04.411 -> 328
09:46:04.411 -> 342
09:46:04.411 -> 336
09:46:04.411 -> 323
09:46:04.411 -> 328
09:46:04.451 -> 340
09:46:04.451 -> 333
09:46:04.451 -> 323
09:46:04.451 -> 333
09:46:04.451 -> 346
09:46:04.451 -> 337
09:46:04.451 -> 326
09:46:04.451 -> 339
09:46:04.491 -> 352
09:46:04.491 -> 341
09:46:04.491 -> 334
09:46:04.491 -> 348
09:46:04.491 -> 360
09:46:04.491 -> 352
09:46:04.491 -> 346
09:46:04.531 -> 357
09:46:04.531 -> 358
09:46:04.531 -> 333
09:46:04.531 -> 346
09:46:04.531 -> 348
09:46:04.531 -> 334
09:46:04.531 -> 332
09:46:04.531 -> 347
09:46:04.571 -> 350
09:46:04.571 -> 335
09:46:04.571 -> 334
09:46:04.571 -> 349
09:46:04.571 -> 347
09:46:04.571 -> 332
09:46:04.571 -> 330
09:46:04.571 -> 346
09:46:04.611 -> 356
09:46:04.611 -> 368
09:46:04.611 -> 395
09:46:04.611 -> 415
09:46:04.611 -> 392
09:46:04.611 -> 357
09:46:04.611 -> 338
09:46:04.611 -> 320
09:46:04.651 -> 292
09:46:04.651 -> 292
09:46:04.651 -> 327
09:46:04.651 -> 349
09:46:04.651 -> 339
09:46:04.651 -> 329
09:46:04.651 -> 341
09:46:04.651 -> 353
09:46:04.691 -> 340
09:46:04.691 -> 331
09:46:04.691 -> 342
09:46:04.691 -> 353
09:46:04.691 -> 343
09:46:04.691 -> 337
09:46:04.691 -> 350
09:46:04.731 -> 357
09:46:04.731 -> 342
09:46:04.731 -> 337
09:46:04.731 -> 352
09:46:04.731 -> 356
09:46:04.731 -> 341
09:46:04.731 -> 340
09:46:04.731 -> 355
09:46:04.771 -> 359
09:46:04.771 -> 345
09:46:04.771 -> 343
09:46:04.771 -> 358
09:46:04.771 -> 358
09:46:04.771 -> 345
09:46:04.771 -> 346
09:46:04.811 -> 362
09:46:04.811 -> 362
09:46:04.811 -> 351
09:46:04.811 -> 355
09:46:04.811 -> 371
09:46:04.811 -> 369
09:46:04.811 -> 358
09:46:04.811 -> 366
09:46:04.851 -> 382
09:46:04.851 -> 379
09:46:04.851 -> 369
09:46:04.851 -> 378
09:46:04.851 -> 384
09:46:04.851 -> 374
09:46:04.851 -> 383
09:46:04.891 -> 394
09:46:04.891 -> 381
09:46:04.891 -> 368
09:46:04.891 -> 374
09:46:04.891 -> 378
09:46:04.891 -> 358
09:46:04.891 -> 343
09:46:04.891 -> 347
09:46:04.931 -> 347
09:46:04.931 -> 331
09:46:04.931 -> 321
09:46:04.931 -> 330
09:46:04.931 -> 334
09:46:04.931 -> 320
09:46:04.931 -> 315
09:46:04.931 -> 329
09:46:04.971 -> 332
09:46:04.971 -> 317
09:46:04.971 -> 313
09:46:04.971 -> 327
09:46:04.971 -> 326
09:46:04.971 -> 311
09:46:04.971 -> 310
09:46:04.971 -> 323
09:46:05.011 -> 322
09:46:05.011 -> 308
09:46:05.011 -> 310
09:46:05.011 -> 324
09:46:05.011 -> 320
09:46:05.011 -> 307
09:46:05.011 -> 311
09:46:05.051 -> 323
09:46:05.051 -> 316
09:46:05.051 -> 303
09:46:05.051 -> 310
09:46:05.051 -> 323
09:46:05.051 -> 315
09:46:05.051 -> 303
09:46:05.051 -> 311
09:46:05.091 -> 322
09:46:05.091 -> 312
09:46:05.091 -> 302
09:46:05.091 -> 312
09:46:05.091 -> 323
09:46:05.091 -> 311
09:46:05.091 -> 302
09:46:05.091 -> 312
09:46:05.131 -> 318
09:46:05.131 -> 304
09:46:05.131 -> 298
09:46:05.131 -> 311
09:46:05.131 -> 317
09:46:05.131 -> 303
09:46:05.131 -> 298
09:46:05.131 -> 313
09:46:05.171 -> 317
09:46:05.171 -> 303
09:46:05.171 -> 301
09:46:05.171 -> 315
09:46:05.171 -> 318
09:46:05.171 -> 307
09:46:05.171 -> 323
09:46:05.211 -> 322
09:46:05.211 -> 310
09:46:05.211 -> 313
09:46:05.211 -> 325
09:46:05.211 -> 324
09:46:05.211 -> 313
09:46:05.211 -> 321
09:46:05.211 -> 338
09:46:05.251 -> 332
09:46:05.251 -> 314
09:46:05.251 -> 316
09:46:05.251 -> 323
09:46:05.251 -> 312
09:46:05.251 -> 299
09:46:05.251 -> 306
09:46:05.251 -> 318
09:46:05.291 -> 307
09:46:05.291 -> 296
09:46:05.291 -> 306
09:46:05.291 -> 316
09:46:05.291 -> 306
09:46:05.291 -> 297
09:46:05.291 -> 308
09:46:05.331 -> 315
09:46:05.331 -> 302
09:46:05.331 -> 304
09:46:05.331 -> 337
09:46:05.331 -> 370
09:46:05.331 -> 385
09:46:05.331 -> 382
09:46:05.331 -> 376
09:46:05.371 -> 356
09:46:05.371 -> 314
09:46:05.371 -> 272
09:46:05.371 -> 278
09:46:05.371 -> 302
09:46:05.371 -> 302
09:46:05.371 -> 303
09:46:05.411 -> 320
09:46:05.411 -> 321
09:46:05.411 -> 307
09:46:05.411 -> 308
09:46:05.411 -> 324
09:46:05.411 -> 321
09:46:05.411 -> 308
09:46:05.411 -> 311
09:46:05.451 -> 326
09:46:05.451 -> 321
09:46:05.451 -> 309
09:46:05.451 -> 315
09:46:05.451 -> 331
09:46:05.451 -> 325
09:46:05.451 -> 313
09:46:05.451 -> 321
09:46:05.491 -> 334
09:46:05.491 -> 326
09:46:05.491 -> 316
09:46:05.491 -> 326
09:46:05.491 -> 338
09:46:05.491 -> 329
09:46:05.491 -> 322
09:46:05.491 -> 334
09:46:05.531 -> 344
09:46:05.531 -> 328
09:46:05.531 -> 342
09:46:05.531 -> 352
09:46:05.531 -> 341
09:46:05.531 -> 337
09:46:05.531 -> 352
09:46:05.571 -> 359
09:46:05.571 -> 348
09:46:05.571 -> 346
09:46:05.571 -> 362
09:46:05.571 -> 367
09:46:05.571 -> 355
09:46:05.571 -> 355
09:46:05.571 -> 371
09:46:05.616 -> 373
09:46:05.616 -> 362
09:46:05.616 -> 364
09:46:05.616 -> 377
09:46:05.616 -> 371
09:46:05.616 -> 352
09:46:05.616 -> 348
09:46:05.616 -> 357
09:46:05.616 -> 346
09:46:05.651 -> 326
09:46:05.651 -> 325
09:46:05.651 -> 334
09:46:05.651 -> 324
09:46:05.651 -> 308
09:46:05.651 -> 311
09:46:05.651 -> 322
09:46:05.691 -> 312
09:46:05.691 -> 301
09:46:05.691 -> 309
09:46:05.691 -> 320
09:46:05.691 -> 309
09:46:05.691 -> 298
09:46:05.691 -> 309
09:46:05.731 -> 320
09:46:05.731 -> 308
09:46:05.731 -> 298
09:46:05.731 -> 311
09:46:05.731 -> 321
09:46:05.731 -> 309
09:46:05.731 -> 302
09:46:05.731 -> 315
09:46:05.771 -> 320
09:46:05.771 -> 308
09:46:05.771 -> 303
09:46:05.771 -> 318
09:46:05.771 -> 321
09:46:05.771 -> 306
09:46:05.771 -> 305
09:46:05.811 -> 320
09:46:05.811 -> 320
09:46:05.811 -> 305
09:46:05.811 -> 305
09:46:05.811 -> 319
09:46:05.811 -> 318
09:46:05.811 -> 305
09:46:05.811 -> 309
09:46:05.851 -> 324
09:46:05.851 -> 321
09:46:05.851 -> 306
09:46:05.851 -> 310
09:46:05.851 -> 317
09:46:05.851 -> 305
09:46:05.851 -> 312
09:46:05.851 -> 326
09:46:05.891 -> 318
09:46:05.891 -> 307
09:46:05.891 -> 317
09:46:05.891 -> 329
09:46:05.891 -> 321
09:46:05.891 -> 314
09:46:05.891 -> 325
09:46:05.931 -> 335
09:46:05.931 -> 323
09:46:05.931 -> 315
09:46:05.931 -> 329
09:46:05.931 -> 338
09:46:05.931 -> 326
09:46:05.931 -> 317
09:46:05.931 -> 330
09:46:05.971 -> 337
09:46:05.971 -> 324
09:46:05.971 -> 319
09:46:05.971 -> 332
09:46:05.971 -> 336
09:46:05.971 -> 323
09:46:05.971 -> 322
09:46:05.971 -> 336
09:46:06.011 -> 337
09:46:06.011 -> 324
09:46:06.011 -> 322
09:46:06.011 -> 336
09:46:06.011 -> 336
09:46:06.011 -> 322
09:46:06.011 -> 324
09:46:06.011 -> 339
09:46:06.051 -> 336
09:46:06.051 -> 322
09:46:06.051 -> 327
09:46:06.051 -> 342
09:46:06.051 -> 337
09:46:06.051 -> 322
09:46:06.051 -> 327
09:46:06.091 -> 342
09:46:06.091 -> 335
09:46:06.091 -> 322
09:46:06.091 -> 330
09:46:06.091 -> 343
09:46:06.091 -> 333
09:46:06.091 -> 321
09:46:06.091 -> 331
09:46:06.131 -> 343
09:46:06.131 -> 331
09:46:06.131 -> 322
09:46:06.131 -> 332
09:46:06.131 -> 341
09:46:06.131 -> 329
09:46:06.131 -> 322
09:46:06.131 -> 336
09:46:06.171 -> 343
09:46:06.171 -> 329
09:46:06.171 -> 323
09:46:06.171 -> 336
09:46:06.171 -> 340
09:46:06.171 -> 326
09:46:06.171 -> 337
09:46:06.171 -> 339
09:46:06.211 -> 326
09:46:06.211 -> 324
09:46:06.211 -> 338
09:46:06.211 -> 338
09:46:06.211 -> 323
09:46:06.211 -> 325
09:46:06.211 -> 339
09:46:06.251 -> 337
09:46:06.251 -> 324
09:46:06.251 -> 326
09:46:06.251 -> 340
09:46:06.251 -> 335
09:46:06.251 -> 322
09:46:06.251 -> 326
09:46:06.251 -> 339
09:46:06.291 -> 332
09:46:06.291 -> 320
09:46:06.291 -> 325
09:46:06.291 -> 339
09:46:06.291 -> 330
09:46:06.291 -> 319
09:46:06.291 -> 329
09:46:06.331 -> 340
09:46:06.331 -> 330
09:46:06.331 -> 319
09:46:06.331 -> 330
09:46:06.331 -> 340
09:46:06.331 -> 332
09:46:06.331 -> 324
09:46:06.331 -> 335
09:46:06.371 -> 343
09:46:06.371 -> 333
09:46:06.371 -> 333
09:46:06.371 -> 347
09:46:06.371 -> 350
09:46:06.371 -> 338
09:46:06.371 -> 338
09:46:06.411 -> 351
09:46:06.411 -> 352
09:46:06.411 -> 333
09:46:06.411 -> 327
09:46:06.411 -> 338
09:46:06.411 -> 334
09:46:06.411 -> 316
09:46:06.411 -> 316
09:46:06.451 -> 333
09:46:06.451 -> 332
09:46:06.451 -> 318
09:46:06.451 -> 319
09:46:06.451 -> 332
09:46:06.451 -> 326
09:46:06.451 -> 312
09:46:06.451 -> 314
09:46:06.491 -> 330
09:46:06.491 -> 334
09:46:06.491 -> 343
09:46:06.491 -> 386
09:46:06.491 -> 435
09:46:06.491 -> 432
09:46:06.491 -> 398
09:46:06.491 -> 374
09:46:06.531 -> 351
09:46:06.531 -> 279
09:46:06.531 -> 310
09:46:06.531 -> 331
09:46:06.531 -> 321
09:46:06.531 -> 314
09:46:06.531 -> 326
09:46:06.531 -> 334
09:46:06.571 -> 321
09:46:06.571 -> 316
09:46:06.571 -> 330
09:46:06.571 -> 335
09:46:06.571 -> 321
09:46:06.571 -> 317
09:46:06.571 -> 331
09:46:06.611 -> 336
09:46:06.611 -> 321
09:46:06.611 -> 320
09:46:06.611 -> 336
09:46:06.611 -> 338
09:46:06.611 -> 323
09:46:06.611 -> 323
09:46:06.611 -> 338
09:46:06.651 -> 337
09:46:06.651 -> 323
09:46:06.651 -> 325
09:46:06.651 -> 341
09:46:06.651 -> 339
09:46:06.651 -> 327
09:46:06.651 -> 333
09:46:06.651 -> 348
09:46:06.691 -> 342
09:46:06.691 -> 332
09:46:06.691 -> 341
09:46:06.691 -> 358
09:46:06.691 -> 351
09:46:06.691 -> 342
09:46:06.691 -> 352
09:46:06.691 -> 367
09:46:06.731 -> 358
09:46:06.731 -> 351
09:46:06.731 -> 364
09:46:06.731 -> 377
09:46:06.731 -> 367
09:46:06.731 -> 359
09:46:06.731 -> 371
09:46:06.771 -> 380
09:46:06.771 -> 372
09:46:06.771 -> 366
09:46:06.771 -> 378
09:46:06.771 -> 384
09:46:06.771 -> 368
09:46:06.771 -> 358
09:46:06.771 -> 366
09:46:06.811 -> 364
09:46:06.811 -> 343
09:46:06.811 -> 333
09:46:06.811 -> 339
09:46:06.811 -> 336
09:46:06.811 -> 318
09:46:06.811 -> 312
09:46:06.851 -> 324
09:46:06.851 -> 321
09:46:06.851 -> 305
09:46:06.851 -> 304
09:46:06.851 -> 316
09:46:06.851 -> 302
09:46:06.851 -> 305
09:46:06.851 -> 320
09:46:06.891 -> 314
09:46:06.891 -> 300
09:46:06.891 -> 306
09:46:06.891 -> 320
09:46:06.891 -> 312
09:46:06.891 -> 300
09:46:06.891 -> 308
09:46:06.891 -> 322
09:46:06.931 -> 312
09:46:06.931 -> 301
09:46:06.931 -> 310
09:46:06.931 -> 320
09:46:06.931 -> 307
09:46:06.931 -> 300
09:46:06.931 -> 311
09:46:06.971 -> 321
09:46:06.971 -> 309
09:46:06.971 -> 301
09:46:06.971 -> 313
09:46:06.971 -> 321
09:46:06.971 -> 307
09:46:06.971 -> 301
09:46:06.971 -> 316
09:46:07.011 -> 321
09:46:07.011 -> 308
09:46:07.011 -> 304
09:46:07.011 -> 320
09:46:07.011 -> 321
09:46:07.011 -> 306
09:46:07.011 -> 305
09:46:07.011 -> 321
09:46:07.051 -> 323
09:46:07.051 -> 308
09:46:07.051 -> 309
09:46:07.051 -> 323
09:46:07.051 -> 322
09:46:07.051 -> 307
09:46:07.051 -> 310
09:46:07.091 -> 325
09:46:07.091 -> 320
09:46:07.091 -> 306
09:46:07.091 -> 310
09:46:07.091 -> 325
09:46:07.091 -> 320
09:46:07.091 -> 307
09:46:07.091 -> 315
09:46:07.131 -> 329
09:46:07.131 -> 320
09:46:07.131 -> 307
09:46:07.131 -> 316
09:46:07.131 -> 329
09:46:07.131 -> 318
09:46:07.131 -> 306
09:46:07.131 -> 317
09:46:07.171 -> 327
09:46:07.171 -> 315
09:46:07.171 -> 307
09:46:07.171 -> 320
09:46:07.171 -> 329
09:46:07.171 -> 315
09:46:07.171 -> 323
09:46:07.171 -> 328
09:46:07.211 -> 316
09:46:07.211 -> 311
09:46:07.211 -> 326
09:46:07.211 -> 329
09:46:07.211 -> 316
09:46:07.211 -> 313
09:46:07.211 -> 329
09:46:07.211 -> 331
09:46:07.251 -> 316
09:46:07.251 -> 316
09:46:07.251 -> 332
09:46:07.251 -> 330
09:46:07.251 -> 317
09:46:07.251 -> 318
09:46:07.251 -> 331
09:46:07.291 -> 329
09:46:07.291 -> 316
09:46:07.291 -> 319
09:46:07.291 -> 333
09:46:07.291 -> 327
09:46:07.291 -> 313
09:46:07.291 -> 320
09:46:07.291 -> 335
09:46:07.331 -> 327
09:46:07.331 -> 315
09:46:07.331 -> 323
09:46:07.331 -> 335
09:46:07.331 -> 324
09:46:07.331 -> 314
09:46:07.331 -> 325
09:46:07.371 -> 335
09:46:07.371 -> 324
09:46:07.371 -> 316
09:46:07.371 -> 329
09:46:07.371 -> 336
09:46:07.371 -> 323
09:46:07.371 -> 316
09:46:07.371 -> 331
09:46:07.411 -> 338
09:46:07.411 -> 323
09:46:07.411 -> 318
09:46:07.411 -> 332
09:46:07.411 -> 336
09:46:07.411 -> 323
09:46:07.411 -> 322
09:46:07.451 -> 342
09:46:07.451 -> 348
09:46:07.451 -> 334
09:46:07.451 -> 336
09:46:07.451 -> 352
09:46:07.451 -> 348
09:46:07.451 -> 334
09:46:07.451 -> 338
09:46:07.491 -> 354
09:46:07.491 -> 351
09:46:07.491 -> 334
09:46:07.491 -> 333
09:46:07.491 -> 343
09:46:07.491 -> 331
09:46:07.491 -> 315
09:46:07.491 -> 321
09:46:07.531 -> 333
09:46:07.531 -> 314
09:46:07.531 -> 321
09:46:07.531 -> 334
09:46:07.531 -> 322
09:46:07.531 -> 309
09:46:07.531 -> 316
09:46:07.531 -> 330
09:46:07.571 -> 331
09:46:07.571 -> 350
09:46:07.571 -> 399
09:46:07.571 -> 438
09:46:07.571 -> 423
09:46:07.571 -> 387
09:46:07.571 -> 366
09:46:07.571 -> 334
09:46:07.621 -> 279
09:46:07.621 -> 280
09:46:07.621 -> 318
09:46:07.621 -> 330
09:46:07.621 -> 316
09:46:07.621 -> 312
09:46:07.621 -> 327
09:46:07.621 -> 329
09:46:07.621 -> 314
09:46:07.661 -> 313
09:46:07.661 -> 329
09:46:07.661 -> 330
09:46:07.661 -> 316
09:46:07.661 -> 316
09:46:07.661 -> 332
09:46:07.661 -> 329
09:46:07.661 -> 316
09:46:07.701 -> 320
09:46:07.701 -> 336
09:46:07.701 -> 331
09:46:07.701 -> 319
09:46:07.701 -> 324
09:46:07.701 -> 339
09:46:07.701 -> 332
09:46:07.741 -> 321
09:46:07.741 -> 329
09:46:07.741 -> 343
09:46:07.741 -> 335
09:46:07.741 -> 325
09:46:07.741 -> 334
09:46:07.741 -> 347
09:46:07.741 -> 338
09:46:07.781 -> 331
09:46:07.781 -> 342
09:46:07.781 -> 354
09:46:07.781 -> 344
09:46:07.781 -> 338
09:46:07.781 -> 353
09:46:07.781 -> 363
09:46:07.781 -> 352
09:46:07.821 -> 349
09:46:07.821 -> 364
09:46:07.821 -> 373
09:46:07.821 -> 361
09:46:07.821 -> 358
09:46:07.821 -> 374
09:46:07.821 -> 378
09:46:07.821 -> 365
09:46:07.861 -> 363
09:46:07.861 -> 375
09:46:07.861 -> 355
09:46:07.861 -> 349
09:46:07.861 -> 358
09:46:07.861 -> 348
09:46:07.861 -> 325
09:46:07.901 -> 321
09:46:07.901 -> 330
09:46:07.901 -> 320
09:46:07.901 -> 302
09:46:07.901 -> 303
09:46:07.901 -> 316
09:46:07.901 -> 307
09:46:07.901 -> 294
09:46:07.941 -> 300
09:46:07.941 -> 313
09:46:07.941 -> 304
09:46:07.941 -> 293
09:46:07.941 -> 302
09:46:07.941 -> 314
09:46:07.941 -> 304
09:46:07.941 -> 294
09:46:07.981 -> 305
09:46:07.981 -> 315
09:46:07.981 -> 304
09:46:07.981 -> 294
09:46:07.981 -> 307
09:46:07.981 -> 315
09:46:07.981 -> 301
09:46:07.981 -> 294
09:46:08.021 -> 308
09:46:08.021 -> 315
09:46:08.021 -> 301
09:46:08.021 -> 296
09:46:08.021 -> 310
09:46:08.021 -> 314
09:46:08.021 -> 300
09:46:08.061 -> 298
09:46:08.061 -> 314
09:46:08.061 -> 316
09:46:08.061 -> 301
09:46:08.061 -> 301
09:46:08.061 -> 317
09:46:08.061 -> 315
09:46:08.061 -> 302
09:46:08.101 -> 304
09:46:08.101 -> 319
09:46:08.101 -> 315
09:46:08.101 -> 301
09:46:08.101 -> 304
09:46:08.101 -> 320
09:46:08.101 -> 316
09:46:08.141 -> 303
09:46:08.141 -> 309
09:46:08.141 -> 323
09:46:08.141 -> 315
09:46:08.141 -> 303
09:46:08.141 -> 310
09:46:08.141 -> 324
09:46:08.141 -> 314
09:46:08.181 -> 302
09:46:08.181 -> 312
09:46:08.181 -> 324
09:46:08.181 -> 314
09:46:08.181 -> 317
09:46:08.181 -> 325
09:46:08.181 -> 313
09:46:08.221 -> 307
09:46:08.221 -> 319
09:46:08.221 -> 325
09:46:08.221 -> 311
09:46:08.221 -> 305
09:46:08.221 -> 318
09:46:08.221 -> 323
09:46:08.221 -> 308
09:46:08.261 -> 304
09:46:08.261 -> 319
09:46:08.261 -> 322
09:46:08.261 -> 308
09:46:08.261 -> 309
09:46:08.261 -> 323
09:46:08.261 -> 322
09:46:08.261 -> 309
09:46:08.301 -> 311
09:46:08.301 -> 327
09:46:08.301 -> 324
09:46:08.301 -> 310
09:46:08.301 -> 313
09:46:08.301 -> 328
09:46:08.301 -> 323
09:46:08.301 -> 309
09:46:08.341 -> 317
09:46:08.341 -> 331
09:46:08.341 -> 324
09:46:08.341 -> 310
09:46:08.341 -> 317
09:46:08.341 -> 330
09:46:08.341 -> 321
09:46:08.341 -> 310
09:46:08.381 -> 318
09:46:08.381 -> 330
09:46:08.381 -> 320
09:46:08.381 -> 311
09:46:08.381 -> 322
09:46:08.381 -> 331
09:46:08.381 -> 319
09:46:08.421 -> 312
09:46:08.421 -> 325
09:46:08.421 -> 332
09:46:08.421 -> 318
09:46:08.421 -> 312
09:46:08.421 -> 328
09:46:08.421 -> 337
09:46:08.421 -> 327
09:46:08.461 -> 325
09:46:08.461 -> 345
09:46:08.461 -> 348
09:46:08.461 -> 331
09:46:08.461 -> 330
09:46:08.461 -> 346
09:46:08.461 -> 348
09:46:08.461 -> 334
09:46:08.501 -> 333
09:46:08.501 -> 345
09:46:08.501 -> 335
09:46:08.501 -> 317
09:46:08.501 -> 319
09:46:08.501 -> 332
09:46:08.501 -> 313
09:46:08.501 -> 319
09:46:08.541 -> 333
09:46:08.541 -> 326
09:46:08.541 -> 313
09:46:08.541 -> 317
09:46:08.541 -> 329
09:46:08.541 -> 325
09:46:08.541 -> 332
09:46:08.581 -> 371
09:46:08.581 -> 410
09:46:08.581 -> 402
09:46:08.581 -> 370
09:46:08.581 -> 356
09:46:08.581 -> 338
09:46:08.581 -> 290
09:46:08.581 -> 267
09:46:08.621 -> 298
09:46:08.621 -> 329
09:46:08.621 -> 320
09:46:08.621 -> 314
09:46:08.621 -> 332
09:46:08.621 -> 339
09:46:08.621 -> 323
09:46:08.661 -> 319
09:46:08.661 -> 333
09:46:08.661 -> 338
09:46:08.661 -> 326
09:46:08.661 -> 326
09:46:08.661 -> 342
09:46:08.661 -> 345
09:46:08.661 -> 330
09:46:08.701 -> 330
09:46:08.701 -> 346
09:46:08.701 -> 345
09:46:08.701 -> 331
09:46:08.701 -> 334
09:46:08.701 -> 350
09:46:08.701 -> 346
09:46:08.741 -> 332
09:46:08.741 -> 337
09:46:08.741 -> 353
09:46:08.741 -> 349
09:46:08.741 -> 338
09:46:08.741 -> 347
09:46:08.741 -> 362
09:46:08.741 -> 355
09:46:08.781 -> 346
09:46:08.781 -> 357
09:46:08.781 -> 372
09:46:08.781 -> 363
09:46:08.781 -> 354
09:46:08.781 -> 365
09:46:08.781 -> 379
09:46:08.781 -> 370
09:46:08.821 -> 363
09:46:08.821 -> 377
09:46:08.821 -> 389
09:46:08.821 -> 378
09:46:08.821 -> 374
09:46:08.821 -> 389
09:46:08.821 -> 397
09:46:08.821 -> 384
09:46:08.861 -> 379
09:46:08.861 -> 396
09:46:08.861 -> 378
09:46:08.861 -> 369
09:46:08.861 -> 378
09:46:08.861 -> 372
09:46:08.861 -> 350
09:46:08.861 -> 341
09:46:08.901 -> 351
09:46:08.901 -> 345
09:46:08.901 -> 325
09:46:08.901 -> 324
09:46:08.901 -> 339
09:46:08.901 -> 334
09:46:08.901 -> 319
09:46:08.941 -> 322
09:46:08.941 -> 336
09:46:08.941 -> 330
09:46:08.941 -> 315
09:46:08.941 -> 321
09:46:08.941 -> 335
09:46:08.941 -> 327
09:46:08.941 -> 314
09:46:08.981 -> 322
09:46:08.981 -> 337
09:46:08.981 -> 327
09:46:08.981 -> 317
09:46:08.981 -> 327
09:46:08.981 -> 338
09:46:08.981 -> 327
09:46:08.981 -> 317
09:46:09.021 -> 329
09:46:09.021 -> 339
09:46:09.021 -> 327
09:46:09.021 -> 320
09:46:09.021 -> 333
09:46:09.021 -> 339
09:46:09.021 -> 326
09:46:09.061 -> 321
09:46:09.061 -> 336
09:46:09.061 -> 342
09:46:09.061 -> 327
09:46:09.061 -> 323
09:46:09.061 -> 339
09:46:09.061 -> 342
09:46:09.061 -> 327
09:46:09.101 -> 326
09:46:09.101 -> 340
09:46:09.101 -> 340
09:46:09.101 -> 327
09:46:09.101 -> 328
09:46:09.101 -> 343
09:46:09.101 -> 340
09:46:09.101 -> 326
09:46:09.141 -> 330
09:46:09.141 -> 346
09:46:09.141 -> 341
09:46:09.141 -> 327
09:46:09.141 -> 332
09:46:09.141 -> 348
09:46:09.141 -> 341
09:46:09.181 -> 328
09:46:09.181 -> 335
09:46:09.181 -> 349
09:46:09.181 -> 339
09:46:09.181 -> 335
09:46:09.181 -> 346
09:46:09.181 -> 334
09:46:09.181 -> 323
09:46:09.221 -> 333
09:46:09.221 -> 344
09:46:09.221 -> 331
09:46:09.221 -> 322
09:46:09.221 -> 332
09:46:09.221 -> 340
09:46:09.221 -> 328
09:46:09.261 -> 327
09:46:09.261 -> 343
09:46:09.261 -> 347
09:46:09.261 -> 333
09:46:09.261 -> 328
09:46:09.261 -> 343
09:46:09.261 -> 347
09:46:09.261 -> 333
09:46:09.301 -> 330
09:46:09.301 -> 345
09:46:09.301 -> 345
09:46:09.301 -> 331
09:46:09.301 -> 331
09:46:09.301 -> 346
09:46:09.301 -> 346
09:46:09.301 -> 331
09:46:09.341 -> 333
09:46:09.341 -> 348
09:46:09.341 -> 344
09:46:09.341 -> 330
09:46:09.341 -> 334
09:46:09.341 -> 350
09:46:09.341 -> 345
09:46:09.341 -> 333
09:46:09.381 -> 339
09:46:09.381 -> 355
09:46:09.381 -> 346
09:46:09.381 -> 334
09:46:09.381 -> 344
09:46:09.381 -> 359
09:46:09.381 -> 353
09:46:09.421 -> 345
09:46:09.421 -> 353
09:46:09.421 -> 358
09:46:09.421 -> 341
09:46:09.421 -> 327
09:46:09.421 -> 337
09:46:09.421 -> 345
09:46:09.421 -> 332
09:46:09.461 -> 325
09:46:09.461 -> 340
09:46:09.461 -> 344
09:46:09.461 -> 330
09:46:09.461 -> 326
09:46:09.461 -> 341
09:46:09.461 -> 343
09:46:09.461 -> 326
09:46:09.501 -> 320
09:46:09.501 -> 338
09:46:09.501 -> 350
09:46:09.501 -> 359
09:46:09.501 -> 388
09:46:09.501 -> 426
09:46:09.501 -> 376
09:46:09.501 -> 350
09:46:09.541 -> 336
09:46:09.541 -> 299
09:46:09.541 -> 286
09:46:09.541 -> 315
09:46:09.541 -> 341
09:46:09.541 -> 335
09:46:09.541 -> 323
09:46:09.581 -> 331
09:46:09.581 -> 345
09:46:09.581 -> 336
09:46:09.581 -> 324
09:46:09.581 -> 333
09:46:09.581 -> 345
09:46:09.581 -> 336
09:46:09.581 -> 325
09:46:09.621 -> 335
09:46:09.621 -> 347
09:46:09.621 -> 336
09:46:09.621 -> 327
09:46:09.621 -> 338
09:46:09.621 -> 347
09:46:09.621 -> 336
09:46:09.661 -> 329
09:46:09.661 -> 342
09:46:09.661 -> 350
09:46:09.661 -> 336
09:46:09.661 -> 331
09:46:09.661 -> 347
09:46:09.661 -> 353
09:46:09.661 -> 340
09:46:09.701 -> 338
09:46:09.701 -> 355
09:46:09.701 -> 357
09:46:09.701 -> 345
09:46:09.701 -> 346
09:46:09.701 -> 362
09:46:09.701 -> 363
09:46:09.701 -> 350
09:46:09.741 -> 353
09:46:09.741 -> 369
09:46:09.741 -> 369
09:46:09.741 -> 359
09:46:09.741 -> 365
09:46:09.741 -> 381
09:46:09.741 -> 378
09:46:09.781 -> 366
09:46:09.781 -> 374
09:46:09.781 -> 388
09:46:09.781 -> 381
09:46:09.781 -> 368
09:46:09.781 -> 374
09:46:09.781 -> 384
09:46:09.781 -> 366
09:46:09.821 -> 344
09:46:09.821 -> 346
09:46:09.821 -> 353
09:46:09.821 -> 337
09:46:09.821 -> 322
09:46:09.821 -> 328
09:46:09.821 -> 332
09:46:09.821 -> 315
09:46:09.861 -> 306
09:46:09.861 -> 321
09:46:09.861 -> 306
09:46:09.861 -> 298
09:46:09.861 -> 312
09:46:09.861 -> 316
09:46:09.861 -> 301
09:46:09.861 -> 297
09:46:09.901 -> 313
09:46:09.901 -> 316
09:46:09.901 -> 301
09:46:09.901 -> 299
09:46:09.901 -> 315
09:46:09.901 -> 316
09:46:09.901 -> 301
09:46:09.941 -> 303
09:46:09.941 -> 319
09:46:09.941 -> 317
09:46:09.941 -> 301
09:46:09.941 -> 303
09:46:09.941 -> 319
09:46:09.941 -> 315
09:46:09.941 -> 300
09:46:09.981 -> 305
09:46:09.981 -> 320
09:46:09.981 -> 313
09:46:09.981 -> 300
09:46:09.981 -> 308
09:46:09.981 -> 321
09:46:09.981 -> 311
09:46:09.981 -> 299
09:46:10.021 -> 310
09:46:10.021 -> 323
09:46:10.021 -> 312
09:46:10.021 -> 302
09:46:10.021 -> 313
09:46:10.021 -> 324
09:46:10.021 -> 312
09:46:10.021 -> 303
09:46:10.061 -> 316
09:46:10.061 -> 323
09:46:10.061 -> 309
09:46:10.061 -> 305
09:46:10.061 -> 314
09:46:10.061 -> 320
09:46:10.061 -> 307
09:46:10.101 -> 303
09:46:10.101 -> 319
09:46:10.101 -> 323
09:46:10.101 -> 308
09:46:10.101 -> 305
09:46:10.101 -> 319
09:46:10.101 -> 318
09:46:10.101 -> 302
09:46:10.141 -> 301
09:46:10.141 -> 317
09:46:10.141 -> 316
09:46:10.141 -> 301
09:46:10.141 -> 303
09:46:10.141 -> 320
09:46:10.141 -> 316
09:46:10.181 -> 301
09:46:10.181 -> 304
09:46:10.181 -> 319
09:46:10.181 -> 313
09:46:10.181 -> 305
09:46:10.181 -> 319
09:46:10.181 -> 310
09:46:10.181 -> 298
09:46:10.221 -> 309
09:46:10.221 -> 322
09:46:10.221 -> 311
09:46:10.221 -> 300
09:46:10.221 -> 311
09:46:10.221 -> 322
09:46:10.221 -> 312
09:46:10.261 -> 304
09:46:10.261 -> 317
09:46:10.261 -> 326
09:46:10.261 -> 313
09:46:10.261 -> 306
09:46:10.261 -> 318
09:46:10.261 -> 323
09:46:10.261 -> 309
09:46:10.301 -> 305
09:46:10.301 -> 321
09:46:10.301 -> 326
09:46:10.301 -> 311
09:46:10.301 -> 308
09:46:10.301 -> 323
09:46:10.301 -> 326
09:46:10.301 -> 310
09:46:10.341 -> 309
09:46:10.341 -> 324
09:46:10.341 -> 323
09:46:10.341 -> 308
09:46:10.341 -> 310
09:46:10.341 -> 327
09:46:10.341 -> 324
09:46:10.341 -> 311
09:46:10.381 -> 315
09:46:10.381 -> 330
09:46:10.381 -> 325
09:46:10.381 -> 311
09:46:10.381 -> 317
09:46:10.381 -> 331
09:46:10.381 -> 321
09:46:10.381 -> 309
09:46:10.421 -> 317
09:46:10.421 -> 331
09:46:10.421 -> 323
09:46:10.421 -> 314
09:46:10.421 -> 324
09:46:10.421 -> 335
09:46:10.421 -> 323
09:46:10.461 -> 313
09:46:10.461 -> 325
09:46:10.461 -> 333
09:46:10.461 -> 321
09:46:10.461 -> 315
09:46:10.461 -> 329
09:46:10.461 -> 337
09:46:10.461 -> 323
09:46:10.501 -> 319
09:46:10.501 -> 336
09:46:10.501 -> 342
09:46:10.501 -> 331
09:46:10.501 -> 330
09:46:10.501 -> 343
09:46:10.501 -> 329
09:46:10.501 -> 331
09:46:10.541 -> 349
09:46:10.541 -> 347
09:46:10.541 -> 330
09:46:10.541 -> 326
09:46:10.541 -> 334
09:46:10.541 -> 329
09:46:10.541 -> 315
09:46:10.541 -> 317
09:46:10.581 -> 332
09:46:10.581 -> 327
09:46:10.581 -> 313
09:46:10.581 -> 317
09:46:10.581 -> 331
09:46:10.581 -> 323
09:46:10.581 -> 309
09:46:10.621 -> 321
09:46:10.621 -> 348
09:46:10.621 -> 365
09:46:10.621 -> 386
09:46:10.621 -> 414
09:46:10.621 -> 417
09:46:10.621 -> 381
09:46:10.621 -> 344
09:46:10.661 -> 320
09:46:10.661 -> 298
09:46:10.661 -> 297
09:46:10.661 -> 308
09:46:10.661 -> 325
09:46:10.661 -> 336
09:46:10.661 -> 325
09:46:10.701 -> 317
09:46:10.701 -> 329
09:46:10.701 -> 337
09:46:10.701 -> 324
09:46:10.701 -> 316
09:46:10.701 -> 332
09:46:10.701 -> 336
09:46:10.701 -> 321
09:46:10.741 -> 320
09:46:10.741 -> 337
09:46:10.741 -> 338
09:46:10.741 -> 324
09:46:10.741 -> 323
09:46:10.741 -> 340
09:46:10.741 -> 340
09:46:10.781 -> 326
09:46:10.781 -> 328
09:46:10.781 -> 344
09:46:10.781 -> 342
09:46:10.781 -> 328
09:46:10.781 -> 334
09:46:10.781 -> 351
09:46:10.781 -> 346
09:46:10.821 -> 334
09:46:10.821 -> 342
09:46:10.821 -> 356
09:46:10.821 -> 348
09:46:10.821 -> 336
09:46:10.821 -> 348
09:46:10.821 -> 363
09:46:10.821 -> 357
09:46:10.861 -> 349
09:46:10.861 -> 376
09:46:10.861 -> 365
09:46:10.861 -> 359
09:46:10.861 -> 374
09:46:10.861 -> 385
09:46:10.861 -> 372
09:46:10.861 -> 365
09:46:10.901 -> 381
09:46:10.901 -> 390
09:46:10.901 -> 376
09:46:10.901 -> 370
09:46:10.901 -> 381
09:46:10.901 -> 379
09:46:10.901 -> 357
09:46:10.901 -> 347
09:46:10.941 -> 358
09:46:10.941 -> 352
09:46:10.941 -> 329
09:46:10.941 -> 321
09:46:10.941 -> 332
09:46:10.941 -> 327
09:46:10.941 -> 309
09:46:10.981 -> 308
09:46:10.981 -> 321
09:46:10.981 -> 317
09:46:10.981 -> 303
09:46:10.981 -> 306
09:46:10.981 -> 321
09:46:10.981 -> 317
09:46:10.981 -> 303
09:46:11.021 -> 310
09:46:11.021 -> 324
09:46:11.021 -> 317
09:46:11.021 -> 303
09:46:11.021 -> 311
09:46:11.021 -> 324
09:46:11.021 -> 313
09:46:11.021 -> 302
09:46:11.061 -> 313
09:46:11.061 -> 325
09:46:11.061 -> 316
09:46:11.061 -> 307
09:46:11.061 -> 319
09:46:11.061 -> 327
09:46:11.061 -> 314
09:46:11.061 -> 306
09:46:11.101 -> 319
09:46:11.101 -> 326
09:46:11.101 -> 312
09:46:11.101 -> 306
09:46:11.101 -> 322
09:46:11.101 -> 327
09:46:11.101 -> 312
09:46:11.141 -> 309
09:46:11.141 -> 325
09:46:11.141 -> 328
09:46:11.141 -> 313
09:46:11.141 -> 313
09:46:11.141 -> 330
09:46:11.141 -> 331
09:46:11.141 -> 315
09:46:11.181 -> 316
09:46:11.181 -> 331
09:46:11.181 -> 328
09:46:11.181 -> 316
09:46:11.181 -> 331
09:46:11.181 -> 327
09:46:11.181 -> 314
09:46:11.221 -> 320
09:46:11.221 -> 334
09:46:11.221 -> 325
09:46:11.221 -> 312
09:46:11.221 -> 320
09:46:11.221 -> 335
09:46:11.221 -> 325
09:46:11.221 -> 312
09:46:11.261 -> 322
09:46:11.261 -> 334
09:46:11.261 -> 323
09:46:11.261 -> 313
09:46:11.261 -> 325
09:46:11.261 -> 335
09:46:11.261 -> 323
09:46:11.301 -> 314
09:46:11.301 -> 327
09:46:11.301 -> 334
09:46:11.301 -> 320
09:46:11.301 -> 315
09:46:11.301 -> 329
09:46:11.301 -> 333
09:46:11.301 -> 319
09:46:11.341 -> 314
09:46:11.341 -> 329
09:46:11.341 -> 334
09:46:11.341 -> 321
09:46:11.341 -> 319
09:46:11.341 -> 334
09:46:11.341 -> 336
09:46:11.341 -> 320
09:46:11.381 -> 320
09:46:11.381 -> 336
09:46:11.381 -> 335
09:46:11.381 -> 320
09:46:11.381 -> 322
09:46:11.381 -> 338
09:46:11.381 -> 332
09:46:11.381 -> 318
09:46:11.421 -> 323
09:46:11.421 -> 338
09:46:11.421 -> 331
09:46:11.421 -> 317
09:46:11.421 -> 325
09:46:11.421 -> 340
09:46:11.421 -> 330
09:46:11.461 -> 316
09:46:11.461 -> 326
09:46:11.461 -> 339
09:46:11.461 -> 329
09:46:11.461 -> 320
09:46:11.461 -> 332
09:46:11.461 -> 342
09:46:11.461 -> 330
09:46:11.501 -> 322
09:46:11.501 -> 334
09:46:11.501 -> 344
09:46:11.501 -> 329
09:46:11.501 -> 322
09:46:11.501 -> 336
09:46:11.501 -> 327
09:46:11.501 -> 322
09:46:11.541 -> 337
09:46:11.541 -> 341
09:46:11.541 -> 326
09:46:11.541 -> 324
09:46:11.541 -> 339
09:46:11.541 -> 340
09:46:11.541 -> 326
09:46:11.541 -> 326
09:46:11.581 -> 340
09:46:11.581 -> 338
09:46:11.581 -> 323
09:46:11.581 -> 326
09:46:11.581 -> 342
09:46:11.581 -> 338
09:46:11.581 -> 323
09:46:11.621 -> 326
09:46:11.621 -> 341
09:46:11.621 -> 334
09:46:11.621 -> 321
09:46:11.621 -> 327
09:46:11.621 -> 341
09:46:11.621 -> 334
09:46:11.621 -> 323
09:46:11.661 -> 331
09:46:11.661 -> 343
09:46:11.661 -> 332
09:46:11.661 -> 321
09:46:11.661 -> 335
09:46:11.661 -> 349
09:46:11.661 -> 339
09:46:11.661 -> 334
09:46:11.701 -> 350
09:46:11.701 -> 357
09:46:11.701 -> 342
09:46:11.701 -> 335
09:46:11.701 -> 350
09:46:11.701 -> 358
09:46:11.701 -> 344
09:46:11.741 -> 336
09:46:11.741 -> 347
09:46:11.741 -> 343
09:46:11.741 -> 325
09:46:11.741 -> 321
09:46:11.741 -> 336
09:46:11.741 -> 339
09:46:11.741 -> 323
09:46:11.781 -> 321
09:46:11.781 -> 336
09:46:11.781 -> 334
09:46:11.781 -> 318
09:46:11.781 -> 318
09:46:11.781 -> 332
09:46:11.781 -> 333
09:46:11.821 -> 331
09:46:11.821 -> 364
09:46:11.821 -> 416
09:46:11.821 -> 432
09:46:11.821 -> 407
09:46:11.821 -> 384
09:46:11.821 -> 369
09:46:11.821 -> 323
09:46:11.861 -> 279
09:46:11.861 -> 333
09:46:11.861 -> 328
09:46:11.861 -> 318
09:46:11.861 -> 329
09:46:11.861 -> 341
09:46:11.861 -> 330
09:46:11.861 -> 320
09:46:11.901 -> 333
09:46:11.901 -> 342
09:46:11.901 -> 330
09:46:11.901 -> 322
09:46:11.901 -> 336
09:46:11.901 -> 345
09:46:11.901 -> 331
09:46:11.901 -> 326
09:46:11.941 -> 341
09:46:11.941 -> 344
09:46:11.941 -> 328
09:46:11.941 -> 325
09:46:11.941 -> 344
09:46:11.941 -> 348
09:46:11.941 -> 332
09:46:11.981 -> 331
09:46:11.981 -> 348
09:46:11.981 -> 350
09:46:11.981 -> 334
09:46:11.981 -> 336
09:46:11.981 -> 353
09:46:11.981 -> 351
09:46:11.981 -> 340
09:46:12.021 -> 345
09:46:12.021 -> 361
09:46:12.021 -> 359
09:46:12.021 -> 348
09:46:12.021 -> 355
09:46:12.021 -> 372
09:46:12.021 -> 367
09:46:12.021 -> 357
09:46:12.061 -> 367
09:46:12.061 -> 383
09:46:12.061 -> 378
09:46:12.061 -> 368
09:46:12.061 -> 378
09:46:12.061 -> 391
09:46:12.061 -> 382
09:46:12.061 -> 374
09:46:12.101 -> 386
09:46:12.101 -> 396
09:46:12.101 -> 380
09:46:12.101 -> 367
09:46:12.101 -> 374
09:46:12.101 -> 373
09:46:12.101 -> 351
09:46:12.141 -> 337
09:46:12.141 -> 343
09:46:12.141 -> 343
09:46:12.141 -> 322
09:46:12.141 -> 312
09:46:12.141 -> 324
09:46:12.141 -> 325
09:46:12.141 -> 308
09:46:12.181 -> 303
09:46:12.181 -> 318
09:46:12.181 -> 319
09:46:12.181 -> 304
09:46:12.181 -> 322
09:46:12.181 -> 321
09:46:12.181 -> 305
09:46:12.181 -> 308
09:46:12.221 -> 323
09:46:12.221 -> 318
09:46:12.221 -> 304
09:46:12.221 -> 308
09:46:12.221 -> 322
09:46:12.221 -> 315
09:46:12.221 -> 302
09:46:12.261 -> 313
09:46:12.261 -> 327
09:46:12.261 -> 319
09:46:12.261 -> 307
09:46:12.261 -> 316
09:46:12.261 -> 328
09:46:12.261 -> 317
09:46:12.261 -> 305
09:46:12.301 -> 316
09:46:12.301 -> 328
09:46:12.301 -> 317
09:46:12.301 -> 306
09:46:12.301 -> 319
09:46:12.301 -> 329
09:46:12.301 -> 316
09:46:12.341 -> 309
09:46:12.341 -> 322
09:46:12.341 -> 329
09:46:12.341 -> 313
09:46:12.341 -> 309
09:46:12.341 -> 326
09:46:12.341 -> 330
09:46:12.341 -> 314
09:46:12.381 -> 311
09:46:12.381 -> 328
09:46:12.381 -> 329
09:46:12.381 -> 313
09:46:12.381 -> 313
09:46:12.381 -> 329
09:46:12.381 -> 327
09:46:12.381 -> 313
09:46:12.421 -> 316
09:46:12.421 -> 332
09:46:12.421 -> 329
09:46:12.421 -> 314
09:46:12.421 -> 318
09:46:12.421 -> 332
09:46:12.421 -> 326
09:46:12.421 -> 313
09:46:12.461 -> 318
09:46:12.461 -> 331
09:46:12.461 -> 324
09:46:12.461 -> 311
09:46:12.461 -> 318
09:46:12.461 -> 332
09:46:12.461 -> 321
09:46:12.501 -> 310
09:46:12.501 -> 322
09:46:12.501 -> 335
09:46:12.501 -> 321
09:46:12.501 -> 312
09:46:12.501 -> 324
09:46:12.501 -> 320
09:46:12.501 -> 313
09:46:12.541 -> 328
09:46:12.541 -> 337
09:46:12.541 -> 323
09:46:12.541 -> 316
09:46:12.541 -> 330
09:46:12.541 -> 336
09:46:12.541 -> 321
09:46:12.541 -> 318
09:46:12.581 -> 332
09:46:12.581 -> 335
09:46:12.581 -> 320
09:46:12.581 -> 319
09:46:12.581 -> 336
09:46:12.581 -> 335
09:46:12.581 -> 320
09:46:12.581 -> 320
09:46:12.621 -> 335
09:46:12.621 -> 333
09:46:12.621 -> 320
09:46:12.621 -> 324
09:46:12.621 -> 338
09:46:12.621 -> 333
09:46:12.621 -> 319
09:46:12.661 -> 325
09:46:12.661 -> 340
09:46:12.661 -> 334
09:46:12.661 -> 320
09:46:12.661 -> 328
09:46:12.661 -> 341
09:46:12.661 -> 332
09:46:12.661 -> 321
09:46:12.701 -> 331
09:46:12.701 -> 343
09:46:12.701 -> 331
09:46:12.701 -> 320
09:46:12.701 -> 332
09:46:12.701 -> 342
09:46:12.701 -> 330
09:46:12.701 -> 322
09:46:12.741 -> 335
09:46:12.741 -> 341
09:46:12.741 -> 328
09:46:12.741 -> 323
09:46:12.741 -> 338
09:46:12.741 -> 342
09:46:12.741 -> 327
09:46:12.781 -> 325
09:46:12.781 -> 340
09:46:12.781 -> 341
09:46:12.781 -> 325
09:46:12.781 -> 324
09:46:12.781 -> 340
09:46:12.781 -> 340
09:46:12.781 -> 325
09:46:12.821 -> 324
09:46:12.821 -> 340
09:46:12.821 -> 338
09:46:12.821 -> 324
09:46:12.821 -> 325
09:46:12.821 -> 341
09:46:12.821 -> 337
09:46:12.861 -> 322
09:46:12.861 -> 340
09:46:12.861 -> 336
09:46:12.861 -> 323
09:46:12.861 -> 332
09:46:12.861 -> 349
09:46:12.861 -> 343
09:46:12.861 -> 334
09:46:12.901 -> 346
09:46:12.901 -> 359
09:46:12.901 -> 345
09:46:12.901 -> 336
09:46:12.901 -> 349
09:46:12.901 -> 361
09:46:12.901 -> 346
09:46:12.901 -> 336
09:46:12.941 -> 346
09:46:12.941 -> 347
09:46:12.941 -> 327
09:46:12.941 -> 318
09:46:12.941 -> 332
09:46:12.941 -> 337
09:46:12.941 -> 322
09:46:12.941 -> 317
09:46:12.981 -> 332
09:46:12.981 -> 336
09:46:12.981 -> 320
09:46:12.981 -> 317
09:46:12.981 -> 329
09:46:12.981 -> 331
09:46:12.981 -> 325
09:46:13.021 -> 348
09:46:13.021 -> 398
09:46:13.021 -> 434
09:46:13.021 -> 426
09:46:13.021 -> 404
09:46:13.021 -> 387
09:46:13.021 -> 348
09:46:13.021 -> 287
09:46:13.061 -> 283
09:46:13.061 -> 324
09:46:13.061 -> 331
09:46:13.061 -> 319
09:46:13.061 -> 325
09:46:13.061 -> 338
09:46:13.061 -> 329
09:46:13.061 -> 318
09:46:13.101 -> 327
09:46:13.101 -> 340
09:46:13.101 -> 331
09:46:13.101 -> 318
09:46:13.101 -> 329
09:46:13.101 -> 343
09:46:13.101 -> 332
09:46:13.101 -> 321
09:46:13.141 -> 334
09:46:13.141 -> 343
09:46:13.141 -> 330
09:46:13.141 -> 323
09:46:13.141 -> 337
09:46:13.141 -> 344
09:46:13.141 -> 331
09:46:13.181 -> 327
09:46:13.181 -> 343
09:46:13.181 -> 348
09:46:13.181 -> 332
09:46:13.181 -> 349
09:46:13.181 -> 353
09:46:13.181 -> 339
09:46:13.181 -> 339
09:46:13.221 -> 355
09:46:13.221 -> 357
09:46:13.221 -> 345
09:46:13.221 -> 347
09:46:13.221 -> 366
09:46:13.221 -> 366
09:46:13.221 -> 354
09:46:13.261 -> 360
09:46:13.261 -> 378
09:46:13.261 -> 375
09:46:13.261 -> 363
09:46:13.261 -> 374
09:46:13.261 -> 390
09:46:13.261 -> 384
09:46:13.261 -> 371
09:46:13.301 -> 381
09:46:13.301 -> 396
09:46:13.301 -> 384
09:46:13.301 -> 368
09:46:13.301 -> 373
09:46:13.301 -> 377
09:46:13.301 -> 357
09:46:13.341 -> 338
09:46:13.341 -> 342
09:46:13.341 -> 345
09:46:13.341 -> 326
09:46:13.341 -> 311
09:46:13.341 -> 319
09:46:13.341 -> 325
09:46:13.341 -> 307
09:46:13.381 -> 299
09:46:13.381 -> 312
09:46:13.381 -> 318
09:46:13.381 -> 303
09:46:13.381 -> 299
09:46:13.381 -> 312
09:46:13.381 -> 316
09:46:13.381 -> 302
09:46:13.421 -> 301
09:46:13.421 -> 317
09:46:13.421 -> 317
09:46:13.421 -> 301
09:46:13.421 -> 301
09:46:13.421 -> 318
09:46:13.421 -> 318
09:46:13.421 -> 303
09:46:13.461 -> 305
09:46:13.461 -> 321
09:46:13.461 -> 316
09:46:13.461 -> 301
09:46:13.461 -> 305
09:46:13.461 -> 319
09:46:13.461 -> 313
09:46:13.461 -> 300
09:46:13.501 -> 309
09:46:13.501 -> 322
09:46:13.501 -> 312
09:46:13.501 -> 301
09:46:13.501 -> 312
09:46:13.501 -> 316
09:46:13.501 -> 304
09:46:13.541 -> 314
09:46:13.541 -> 324
09:46:13.541 -> 312
09:46:13.541 -> 304
09:46:13.541 -> 318
09:46:13.541 -> 326
09:46:13.541 -> 313
09:46:13.541 -> 306
09:46:13.581 -> 320
09:46:13.581 -> 328
09:46:13.581 -> 314
09:46:13.581 -> 308
09:46:13.581 -> 324
09:46:13.581 -> 327
09:46:13.581 -> 313
09:46:13.581 -> 311
09:46:13.621 -> 327
09:46:13.621 -> 329
09:46:13.621 -> 313
09:46:13.621 -> 313
09:46:13.621 -> 329
09:46:13.621 -> 327
09:46:13.621 -> 312
09:46:13.621 -> 313
09:46:13.661 -> 328
09:46:13.661 -> 324
09:46:13.661 -> 309
09:46:13.661 -> 313
09:46:13.661 -> 328
09:46:13.661 -> 322
09:46:13.661 -> 308
09:46:13.701 -> 316
09:46:13.701 -> 331
09:46:13.701 -> 323
09:46:13.701 -> 313
09:46:13.701 -> 321
09:46:13.701 -> 332
09:46:13.701 -> 321
09:46:13.701 -> 310
09:46:13.741 -> 320
09:46:13.741 -> 333
09:46:13.741 -> 321
09:46:13.741 -> 311
09:46:13.741 -> 323
09:46:13.741 -> 333
09:46:13.741 -> 320
09:46:13.781 -> 314
09:46:13.781 -> 328
09:46:13.781 -> 334
09:46:13.781 -> 319
09:46:13.781 -> 313
09:46:13.781 -> 328
09:46:13.781 -> 334
09:46:13.781 -> 318
09:46:13.821 -> 315
09:46:13.821 -> 331
09:46:13.821 -> 332
09:46:13.821 -> 316
09:46:13.821 -> 314
09:46:13.821 -> 331
09:46:13.821 -> 331
09:46:13.861 -> 317
09:46:13.861 -> 334
09:46:13.861 -> 330
09:46:13.861 -> 315
09:46:13.861 -> 319
09:46:13.861 -> 335
09:46:13.861 -> 330
09:46:13.861 -> 316
09:46:13.901 -> 321
09:46:13.901 -> 336
09:46:13.901 -> 329
09:46:13.901 -> 317
09:46:13.901 -> 323
09:46:13.901 -> 337
09:46:13.901 -> 328
09:46:13.901 -> 318
09:46:13.941 -> 327
09:46:13.941 -> 340
09:46:13.941 -> 328
09:46:13.941 -> 317
09:46:13.941 -> 329
09:46:13.941 -> 339
09:46:13.941 -> 325
09:46:13.941 -> 317
09:46:13.981 -> 330
09:46:13.981 -> 338
09:46:13.981 -> 323
09:46:13.981 -> 316
09:46:13.981 -> 331
09:46:13.981 -> 337
09:46:13.981 -> 323
09:46:13.981 -> 318
09:46:14.021 -> 332
09:46:14.021 -> 335
09:46:14.021 -> 319
09:46:14.021 -> 319
09:46:14.021 -> 335
09:46:14.021 -> 335
09:46:14.021 -> 320
09:46:14.061 -> 319
09:46:14.061 -> 334
09:46:14.061 -> 332
09:46:14.061 -> 318
09:46:14.061 -> 321
09:46:14.061 -> 336
09:46:14.061 -> 332
09:46:14.061 -> 318
09:46:14.101 -> 322
09:46:14.101 -> 338
09:46:14.101 -> 331
09:46:14.101 -> 317
09:46:14.101 -> 324
09:46:14.101 -> 342
09:46:14.101 -> 338
09:46:14.101 -> 328
09:46:14.141 -> 339
09:46:14.141 -> 353
09:46:14.141 -> 339
09:46:14.141 -> 328
09:46:14.141 -> 341
09:46:14.141 -> 354
09:46:14.141 -> 342
09:46:14.141 -> 331
09:46:14.181 -> 340
09:46:14.181 -> 342
09:46:14.181 -> 313
09:46:14.181 -> 326
09:46:14.181 -> 330
09:46:14.181 -> 314
09:46:14.181 -> 309
09:46:14.221 -> 322
09:46:14.221 -> 325
09:46:14.221 -> 309
09:46:14.221 -> 303
09:46:14.221 -> 315
09:46:14.221 -> 319
09:46:14.221 -> 316
09:46:14.221 -> 342
09:46:14.261 -> 394
09:46:14.261 -> 426
09:46:14.261 -> 409
09:46:14.261 -> 382
09:46:14.261 -> 364
09:46:14.261 -> 322
09:46:14.261 -> 264
09:46:14.301 -> 271
09:46:14.301 -> 312
09:46:14.301 -> 315
09:46:14.301 -> 303
09:46:14.301 -> 310
09:46:14.301 -> 324
09:46:14.301 -> 315
09:46:14.301 -> 302
09:46:14.341 -> 311
09:46:14.341 -> 326
09:46:14.341 -> 314
09:46:14.341 -> 303
09:46:14.341 -> 313
09:46:14.341 -> 325
09:46:14.341 -> 315
09:46:14.381 -> 305
09:46:14.381 -> 317
09:46:14.381 -> 327
09:46:14.381 -> 315
09:46:14.381 -> 309
09:46:14.381 -> 323
09:46:14.381 -> 330
09:46:14.381 -> 317
09:46:14.421 -> 312
09:46:14.421 -> 328
09:46:14.421 -> 334
09:46:14.421 -> 321
09:46:14.421 -> 319
09:46:14.421 -> 336
09:46:14.421 -> 340
09:46:14.421 -> 326
09:46:14.461 -> 327
09:46:14.461 -> 346
09:46:14.461 -> 348
09:46:14.461 -> 335
09:46:14.461 -> 337
09:46:14.461 -> 356
09:46:14.461 -> 355
09:46:14.461 -> 344
09:46:14.501 -> 351
09:46:14.501 -> 370
09:46:14.501 -> 367
09:46:14.501 -> 357
09:46:14.501 -> 365
09:46:14.501 -> 375
09:46:14.501 -> 364
09:46:14.501 -> 372
09:46:14.541 -> 387
09:46:14.541 -> 377
09:46:14.541 -> 363
09:46:14.541 -> 367
09:46:14.541 -> 370
09:46:14.541 -> 351
09:46:14.541 -> 333
09:46:14.581 -> 336
09:46:14.581 -> 337
09:46:14.581 -> 318
09:46:14.581 -> 304
09:46:14.581 -> 313
09:46:14.581 -> 318
09:46:14.581 -> 303
09:46:14.581 -> 296
09:46:14.621 -> 309
09:46:14.621 -> 314
09:46:14.621 -> 299
09:46:14.621 -> 294
09:46:14.621 -> 309
09:46:14.621 -> 312
09:46:14.621 -> 299
09:46:14.621 -> 299
09:46:14.661 -> 317
09:46:14.661 -> 318
09:46:14.661 -> 302
09:46:14.661 -> 301
09:46:14.661 -> 317
09:46:14.661 -> 316
09:46:14.661 -> 301
09:46:14.661 -> 307
09:46:14.701 -> 331
09:46:14.701 -> 319
09:46:14.701 -> 291
09:46:14.701 -> 295
09:46:14.701 -> 312
09:46:14.701 -> 306
09:46:14.701 -> 295
09:46:14.741 -> 304
09:46:14.741 -> 321
09:46:14.741 -> 311
09:46:14.741 -> 295
09:46:14.741 -> 302
09:46:14.741 -> 314
09:46:14.741 -> 307
09:46:14.741 -> 310
09:46:14.781 -> 316
09:46:14.781 -> 311
09:46:14.781 -> 296
09:46:14.781 -> 290
09:46:14.781 -> 303
09:46:14.781 -> 314
09:46:14.781 -> 303
09:46:14.821 -> 295
09:46:14.821 -> 307
09:46:14.821 -> 311
09:46:14.821 -> 299
09:46:14.821 -> 297
09:46:14.821 -> 318
09:46:14.821 -> 318
09:46:14.821 -> 288
09:46:14.861 -> 306
09:46:14.861 -> 309
09:46:14.861 -> 290
09:46:14.861 -> 290
09:46:14.861 -> 307
09:46:14.861 -> 306
09:46:14.861 -> 290
09:46:14.901 -> 295
09:46:14.901 -> 311
09:46:14.901 -> 308
09:46:14.901 -> 294
09:46:14.901 -> 299
09:46:14.901 -> 321
09:46:14.901 -> 315
09:46:14.901 -> 285
09:46:14.941 -> 286
09:46:14.941 -> 304
09:46:14.941 -> 301
09:46:14.941 -> 296
09:46:14.941 -> 303
09:46:14.941 -> 314
09:46:14.941 -> 305
09:46:14.941 -> 295
09:46:14.981 -> 307
09:46:14.981 -> 324
09:46:14.981 -> 299
09:46:14.981 -> 283
09:46:14.981 -> 299
09:46:14.981 -> 315
09:46:14.981 -> 309
09:46:14.981 -> 302
09:46:15.021 -> 310
09:46:15.021 -> 318
09:46:15.021 -> 304
09:46:15.021 -> 301
09:46:15.021 -> 317
09:46:15.021 -> 317
09:46:15.021 -> 304
09:46:15.061 -> 306
09:46:15.061 -> 325
09:46:15.061 -> 322
09:46:15.061 -> 299
09:46:15.061 -> 296
09:46:15.061 -> 313
09:46:15.061 -> 313
09:46:15.061 -> 300
09:46:15.101 -> 303
09:46:15.101 -> 318
09:46:15.101 -> 317
09:46:15.101 -> 299
09:46:15.101 -> 304
09:46:15.101 -> 321
09:46:15.101 -> 314
09:46:15.101 -> 310
09:46:15.141 -> 310
09:46:15.141 -> 313
09:46:15.141 -> 307
09:46:15.141 -> 296
09:46:15.141 -> 306
09:46:15.141 -> 322
09:46:15.141 -> 315
09:46:15.141 -> 306
09:46:15.181 -> 317
09:46:15.181 -> 329
09:46:15.181 -> 308
09:46:15.181 -> 322
09:46:15.181 -> 333
09:46:15.181 -> 324
09:46:15.181 -> 321
09:46:15.221 -> 340
09:46:15.221 -> 350
09:46:15.221 -> 334
09:46:15.221 -> 326
09:46:15.221 -> 344
09:46:15.221 -> 352
09:46:15.221 -> 335
09:46:15.221 -> 333
09:46:15.261 -> 346
09:46:15.261 -> 346
09:46:15.261 -> 326
09:46:15.261 -> 320
09:46:15.261 -> 336
09:46:15.261 -> 345
09:46:15.261 -> 323
09:46:15.261 -> 316
09:46:15.301 -> 332
09:46:15.301 -> 334
09:46:15.301 -> 318
09:46:15.301 -> 322
09:46:15.301 -> 339
09:46:15.301 -> 332
09:46:15.301 -> 318
09:46:15.341 -> 337
09:46:15.341 -> 379
09:46:15.341 -> 399
09:46:15.341 -> 389
09:46:15.341 -> 381
09:46:15.341 -> 374
09:46:15.341 -> 340
09:46:15.341 -> 301
09:46:15.381 -> 290
09:46:15.381 -> 305
09:46:15.381 -> 317
09:46:15.381 -> 323
09:46:15.381 -> 342
09:46:15.381 -> 351
09:46:15.381 -> 328
09:46:15.421 -> 319
09:46:15.421 -> 335
09:46:15.421 -> 346
09:46:15.421 -> 333
09:46:15.421 -> 327
09:46:15.421 -> 341
09:46:15.421 -> 349
09:46:15.421 -> 337
09:46:15.461 -> 331
09:46:15.461 -> 344
09:46:15.461 -> 348
09:46:15.461 -> 335
09:46:15.461 -> 335
09:46:15.461 -> 352
09:46:15.461 -> 353
09:46:15.461 -> 336
09:46:15.501 -> 339
09:46:15.501 -> 364
09:46:15.501 -> 360
09:46:15.501 -> 333
09:46:15.501 -> 332
09:46:15.501 -> 354
09:46:15.501 -> 341
09:46:15.501 -> 345
09:46:15.541 -> 365
09:46:15.541 -> 360
09:46:15.541 -> 346
09:46:15.541 -> 356
09:46:15.541 -> 375
09:46:15.541 -> 372
09:46:15.541 -> 364
09:46:15.581 -> 376
09:46:15.581 -> 391
09:46:15.581 -> 383
09:46:15.581 -> 373
09:46:15.581 -> 392
09:46:15.581 -> 417
09:46:15.581 -> 395
09:46:15.581 -> 375
09:46:15.621 -> 388
09:46:15.621 -> 403
09:46:15.621 -> 389
09:46:15.621 -> 378
09:46:15.621 -> 387
09:46:15.621 -> 387
09:46:15.621 -> 363
09:46:15.621 -> 346
09:46:15.661 -> 353
09:46:15.661 -> 350
09:46:15.661 -> 329
09:46:15.661 -> 321
09:46:15.661 -> 331
09:46:15.661 -> 330
09:46:15.661 -> 311
09:46:15.661 -> 314
09:46:15.701 -> 339
09:46:15.701 -> 326
09:46:15.701 -> 298
09:46:15.701 -> 301
09:46:15.701 -> 322
09:46:15.701 -> 321
09:46:15.701 -> 306
09:46:15.741 -> 309
09:46:15.741 -> 325
09:46:15.741 -> 320
09:46:15.741 -> 307
09:46:15.741 -> 314
09:46:15.741 -> 331
09:46:15.741 -> 322
09:46:15.741 -> 309
09:46:15.781 -> 320
09:46:15.781 -> 332
09:46:15.781 -> 322
09:46:15.781 -> 311
09:46:15.781 -> 320
09:46:15.781 -> 333
09:46:15.781 -> 328
09:46:15.781 -> 318
09:46:15.821 -> 316
09:46:15.821 -> 323
09:46:15.821 -> 314
09:46:15.821 -> 305
09:46:15.821 -> 320
09:46:15.821 -> 328
09:46:15.821 -> 316
09:46:15.861 -> 325
09:46:15.861 -> 329
09:46:15.861 -> 315
09:46:15.861 -> 312
09:46:15.861 -> 325
09:46:15.861 -> 328
09:46:15.861 -> 314
09:46:15.861 -> 313
09:46:15.901 -> 327
09:46:15.901 -> 326
09:46:15.901 -> 312
09:46:15.901 -> 314
09:46:15.901 -> 331
09:46:15.901 -> 329
09:46:15.901 -> 314
09:46:15.941 -> 322
09:46:15.941 -> 344
09:46:15.941 -> 328
09:46:15.941 -> 306
09:46:15.941 -> 315
09:46:15.941 -> 333
09:46:15.941 -> 329
09:46:15.941 -> 319
09:46:15.981 -> 326
09:46:15.981 -> 337
09:46:15.981 -> 327
09:46:15.981 -> 316
09:46:15.981 -> 326
09:46:15.981 -> 337
09:46:15.981 -> 327
09:46:15.981 -> 317
09:46:16.021 -> 332
09:46:16.021 -> 344
09:46:16.021 -> 330
09:46:16.021 -> 321
09:46:16.021 -> 334
09:46:16.021 -> 345
09:46:16.021 -> 337
09:46:16.021 -> 340
09:46:16.061 -> 345
09:46:16.061 -> 339
09:46:16.061 -> 327
09:46:16.061 -> 330
09:46:16.061 -> 347
09:46:16.061 -> 353
09:46:16.061 -> 340
09:46:16.101 -> 340
09:46:16.101 -> 360
09:46:16.101 -> 362
09:46:16.101 -> 342
09:46:16.101 -> 337
09:46:16.101 -> 346
09:46:16.101 -> 341
09:46:16.101 -> 327
09:46:16.141 -> 328
09:46:16.141 -> 344
09:46:16.141 -> 342
09:46:16.141 -> 338
09:46:16.141 -> 332
09:46:16.141 -> 335
09:46:16.141 -> 330
09:46:16.141 -> 322
09:46:16.181 -> 331
09:46:16.181 -> 342
09:46:16.181 -> 329
09:46:16.181 -> 362
09:46:16.181 -> 402
09:46:16.181 -> 415
09:46:16.181 -> 399
09:46:16.181 -> 386
09:46:16.221 -> 369
09:46:16.221 -> 328
09:46:16.221 -> 282
09:46:16.221 -> 288
09:46:16.221 -> 323
09:46:16.221 -> 329
09:46:16.221 -> 331
09:46:16.261 -> 342
09:46:16.261 -> 336
09:46:16.261 -> 319
09:46:16.261 -> 320
09:46:16.261 -> 337
09:46:16.261 -> 342
09:46:16.261 -> 328
09:46:16.261 -> 325
09:46:16.296 -> 341
09:46:16.296 -> 343
09:46:16.296 -> 329
09:46:16.296 -> 329
09:46:16.296 -> 344
09:46:16.296 -> 344
09:46:16.296 -> 330
09:46:16.331 -> 333
09:46:16.331 -> 352
09:46:16.331 -> 348
09:46:16.331 -> 335
09:46:16.331 -> 346
09:46:16.331 -> 357
09:46:16.371 -> 341
09:46:16.371 -> 328
09:46:16.371 -> 340
09:46:16.371 -> 357
09:46:16.371 -> 351
09:46:16.371 -> 341
09:46:16.371 -> 350
09:46:16.371 -> 367
09:46:16.411 -> 358
09:46:16.411 -> 348
09:46:16.411 -> 362
09:46:16.411 -> 378
09:46:16.411 -> 368
09:46:16.411 -> 362
09:46:16.411 -> 378
09:46:16.411 -> 390
09:46:16.451 -> 380
09:46:16.451 -> 372
09:46:16.451 -> 384
09:46:16.451 -> 395
09:46:16.451 -> 386
09:46:16.451 -> 388
09:46:16.451 -> 392
09:46:16.451 -> 386
09:46:16.491 -> 370
09:46:16.491 -> 364
09:46:16.491 -> 374
09:46:16.491 -> 368
09:46:16.491 -> 344
09:46:16.491 -> 336
09:46:16.491 -> 336
09:46:16.531 -> 316
09:46:16.531 -> 316
09:46:16.531 -> 329
09:46:16.531 -> 322
09:46:16.531 -> 304
09:46:16.531 -> 305
09:46:16.531 -> 321
09:46:16.531 -> 316
09:46:16.571 -> 300
09:46:16.571 -> 306
09:46:16.571 -> 322
09:46:16.571 -> 313
09:46:16.571 -> 298
09:46:16.571 -> 307
09:46:16.571 -> 323
09:46:16.611 -> 313
09:46:16.611 -> 301
09:46:16.611 -> 309
09:46:16.611 -> 322
09:46:16.611 -> 312
09:46:16.611 -> 306
09:46:16.611 -> 323
09:46:16.611 -> 320
09:46:16.651 -> 300
09:46:16.651 -> 296
09:46:16.651 -> 314
09:46:16.651 -> 324
09:46:16.651 -> 310
09:46:16.651 -> 301
09:46:16.651 -> 315
09:46:16.691 -> 322
09:46:16.691 -> 309
09:46:16.691 -> 303
09:46:16.691 -> 319
09:46:16.691 -> 320
09:46:16.691 -> 305
09:46:16.691 -> 303
09:46:16.691 -> 320
09:46:16.731 -> 322
09:46:16.731 -> 307
09:46:16.731 -> 307
09:46:16.731 -> 323
09:46:16.731 -> 322
09:46:16.731 -> 309
09:46:16.731 -> 310
09:46:16.731 -> 324
09:46:16.769 -> 320
09:46:16.769 -> 306
09:46:16.769 -> 313
09:46:16.769 -> 334
09:46:16.769 -> 333
09:46:16.769 -> 306
09:46:16.769 -> 304
09:46:16.811 -> 321
09:46:16.811 -> 318
09:46:16.811 -> 307
09:46:16.811 -> 315
09:46:16.811 -> 328
09:46:16.811 -> 319
09:46:16.811 -> 310
09:46:16.811 -> 320
09:46:16.811 -> 330
09:46:16.851 -> 317
09:46:16.851 -> 322
09:46:16.851 -> 329
09:46:16.851 -> 316
09:46:16.851 -> 311
09:46:16.851 -> 329
09:46:16.851 -> 338
09:46:16.891 -> 325
09:46:16.891 -> 316
09:46:16.891 -> 326
09:46:16.891 -> 326
09:46:16.891 -> 313
09:46:16.891 -> 312
09:46:16.891 -> 315
09:46:16.891 -> 312
09:46:16.931 -> 299
09:46:16.931 -> 301
09:46:16.931 -> 318
09:46:16.931 -> 318
09:46:16.931 -> 303
09:46:16.931 -> 305
09:46:16.931 -> 321
09:46:16.931 -> 316
09:46:16.971 -> 298
09:46:16.971 -> 304
09:46:16.971 -> 329
09:46:16.971 -> 344
09:46:16.971 -> 357
09:46:16.971 -> 384
09:46:16.971 -> 393
09:46:17.011 -> 363
09:46:17.011 -> 323
09:46:17.011 -> 299
09:46:17.011 -> 279
09:46:17.011 -> 278
09:46:17.011 -> 294
09:46:17.011 -> 314
09:46:17.011 -> 333
09:46:17.051 -> 317
09:46:17.051 -> 296
09:46:17.051 -> 306
09:46:17.051 -> 320
09:46:17.051 -> 308
09:46:17.051 -> 302
09:46:17.051 -> 315
09:46:17.051 -> 324
09:46:17.091 -> 310
09:46:17.091 -> 305
09:46:17.091 -> 320
09:46:17.091 -> 327
09:46:17.091 -> 313
09:46:17.091 -> 310
09:46:17.091 -> 324
09:46:17.131 -> 326
09:46:17.131 -> 313
09:46:17.131 -> 314
09:46:17.131 -> 331
09:46:17.131 -> 330
09:46:17.131 -> 315
09:46:17.131 -> 317
09:46:17.131 -> 335
09:46:17.171 -> 334
09:46:17.171 -> 321
09:46:17.171 -> 326
09:46:17.171 -> 343
09:46:17.171 -> 327
09:46:17.171 -> 333
09:46:17.171 -> 350
09:46:17.211 -> 345
09:46:17.211 -> 332
09:46:17.211 -> 342
09:46:17.211 -> 360
09:46:17.211 -> 355
09:46:17.211 -> 346
09:46:17.211 -> 358
09:46:17.211 -> 371
09:46:17.251 -> 360
09:46:17.251 -> 350
09:46:17.251 -> 362
09:46:17.251 -> 373
09:46:17.251 -> 360
09:46:17.251 -> 350
09:46:17.251 -> 358
09:46:17.251 -> 360
09:46:17.291 -> 339
09:46:17.291 -> 326
09:46:17.291 -> 333
09:46:17.291 -> 331
09:46:17.291 -> 310
09:46:17.291 -> 300
09:46:17.291 -> 312
09:46:17.291 -> 315
09:46:17.331 -> 298
09:46:17.331 -> 294
09:46:17.331 -> 308
09:46:17.331 -> 308
09:46:17.331 -> 294
09:46:17.331 -> 294
09:46:17.331 -> 310
09:46:17.370 -> 309
09:46:17.370 -> 294
09:46:17.370 -> 296
09:46:17.370 -> 312
09:46:17.370 -> 307
09:46:17.370 -> 291
09:46:17.370 -> 297
09:46:17.370 -> 312
09:46:17.411 -> 307
09:46:17.411 -> 294
09:46:17.411 -> 301
09:46:17.411 -> 315
09:46:17.411 -> 306
09:46:17.411 -> 294
09:46:17.411 -> 303
09:46:17.411 -> 315
09:46:17.451 -> 304
09:46:17.451 -> 293
09:46:17.451 -> 306
09:46:17.451 -> 319
09:46:17.451 -> 307
09:46:17.451 -> 297
09:46:17.451 -> 310
09:46:17.451 -> 320
09:46:17.491 -> 307
09:46:17.491 -> 299
09:46:17.491 -> 313
09:46:17.491 -> 320
09:46:17.491 -> 306
09:46:17.491 -> 301
09:46:17.491 -> 318
09:46:17.531 -> 302
09:46:17.531 -> 297
09:46:17.531 -> 313
09:46:17.531 -> 315
09:46:17.531 -> 300
09:46:17.531 -> 299
09:46:17.531 -> 316
09:46:17.531 -> 316
09:46:17.571 -> 300
09:46:17.571 -> 300
09:46:17.571 -> 317
09:46:17.571 -> 313
09:46:17.571 -> 301
09:46:17.571 -> 306
09:46:17.571 -> 323
09:46:17.571 -> 315
09:46:17.611 -> 299
09:46:17.611 -> 307
09:46:17.611 -> 325
09:46:17.611 -> 315
09:46:17.611 -> 302
09:46:17.611 -> 313
09:46:17.611 -> 330
09:46:17.651 -> 323
09:46:17.651 -> 313
09:46:17.651 -> 321
09:46:17.651 -> 328
09:46:17.651 -> 310
09:46:17.651 -> 297
09:46:17.651 -> 309
09:46:17.691 -> 320
09:46:17.691 -> 309
09:46:17.691 -> 301
09:46:17.691 -> 314
09:46:17.691 -> 322
09:46:17.691 -> 309
09:46:17.691 -> 304
09:46:17.691 -> 319
09:46:17.731 -> 323
09:46:17.731 -> 306
09:46:17.731 -> 302
09:46:17.731 -> 323
09:46:17.731 -> 338
09:46:17.731 -> 345
09:46:17.731 -> 372
09:46:17.731 -> 407
09:46:17.771 -> 398
09:46:17.771 -> 360
09:46:17.771 -> 335
09:46:17.771 -> 317
09:46:17.771 -> 286
09:46:17.771 -> 288
09:46:17.771 -> 314
09:46:17.771 -> 335
09:46:17.811 -> 331
09:46:17.811 -> 318
09:46:17.811 -> 322
09:46:17.811 -> 338
09:46:17.811 -> 331
09:46:17.811 -> 319
09:46:17.811 -> 327
09:46:17.811 -> 341
09:46:17.851 -> 330
09:46:17.851 -> 332
09:46:17.851 -> 347
09:46:17.851 -> 334
09:46:17.851 -> 324
09:46:17.851 -> 337
09:46:17.851 -> 349
09:46:17.901 -> 337
09:46:17.901 -> 329
09:46:17.901 -> 343
09:46:17.901 -> 353
09:46:17.901 -> 341
09:46:17.901 -> 334
09:46:17.901 -> 349
09:46:17.901 -> 357
09:46:17.901 -> 344
09:46:17.901 -> 340
09:46:17.941 -> 356
09:46:17.941 -> 361
09:46:17.941 -> 348
09:46:17.941 -> 348
09:46:17.941 -> 368
09:46:17.941 -> 372
09:46:17.941 -> 358
09:46:17.941 -> 361
09:46:17.981 -> 381
09:46:17.981 -> 383
09:46:17.981 -> 368
09:46:17.981 -> 372
09:46:17.981 -> 392
09:46:17.981 -> 390
09:46:17.981 -> 377
09:46:18.021 -> 383
09:46:18.021 -> 400
09:46:18.021 -> 394
09:46:18.021 -> 379
09:46:18.021 -> 382
09:46:18.021 -> 391
09:46:18.021 -> 375
09:46:18.021 -> 353
09:46:18.061 -> 353
09:46:18.061 -> 360
09:46:18.061 -> 343
09:46:18.061 -> 327
09:46:18.061 -> 335
09:46:18.061 -> 343
09:46:18.061 -> 327
09:46:18.061 -> 318
09:46:18.101 -> 328
09:46:18.101 -> 334
09:46:18.101 -> 319
09:46:18.101 -> 312
09:46:18.101 -> 326
09:46:18.101 -> 332
09:46:18.101 -> 316
09:46:18.141 -> 311
09:46:18.141 -> 326
09:46:18.141 -> 332
09:46:18.141 -> 316
09:46:18.141 -> 312
09:46:18.141 -> 327
09:46:18.141 -> 326
09:46:18.141 -> 311
09:46:18.181 -> 310
09:46:18.181 -> 326
09:46:18.181 -> 311
09:46:18.181 -> 313
09:46:18.181 -> 329
09:46:18.181 -> 324
09:46:18.181 -> 307
09:46:18.181 -> 309
09:46:18.221 -> 322
09:46:18.221 -> 316
09:46:18.221 -> 302
09:46:18.221 -> 307
09:46:18.221 -> 323
09:46:18.221 -> 313
09:46:18.221 -> 300
09:46:18.221 -> 308
09:46:18.261 -> 322
09:46:18.261 -> 313
09:46:18.261 -> 303
09:46:18.261 -> 312
09:46:18.261 -> 323
09:46:18.261 -> 311
09:46:18.261 -> 301
09:46:18.301 -> 314
09:46:18.301 -> 323
09:46:18.301 -> 309
09:46:18.301 -> 303
09:46:18.301 -> 317
09:46:18.301 -> 325
09:46:18.301 -> 309
09:46:18.301 -> 304
09:46:18.341 -> 320
09:46:18.341 -> 327
09:46:18.341 -> 311
09:46:18.341 -> 306
09:46:18.341 -> 322
09:46:18.341 -> 325
09:46:18.341 -> 310
09:46:18.341 -> 309
09:46:18.381 -> 327
09:46:18.381 -> 327
09:46:18.381 -> 312
09:46:18.381 -> 312
09:46:18.381 -> 328
09:46:18.381 -> 326
09:46:18.381 -> 310
09:46:18.421 -> 313
09:46:18.421 -> 330
09:46:18.421 -> 323
09:46:18.421 -> 307
09:46:18.421 -> 314
09:46:18.421 -> 331
09:46:18.421 -> 325
09:46:18.421 -> 312
09:46:18.461 -> 321
09:46:18.461 -> 335
09:46:18.461 -> 322
09:46:18.461 -> 311
09:46:18.461 -> 325
09:46:18.461 -> 338
09:46:18.461 -> 327
09:46:18.501 -> 316
09:46:18.501 -> 328
09:46:18.501 -> 337
09:46:18.501 -> 323
09:46:18.501 -> 315
09:46:18.501 -> 337
09:46:18.501 -> 321
09:46:18.501 -> 315
09:46:18.541 -> 332
09:46:18.541 -> 337
09:46:18.541 -> 325
09:46:18.541 -> 321
09:46:18.541 -> 337
09:46:18.541 -> 339
09:46:18.541 -> 323
09:46:18.541 -> 322
09:46:18.581 -> 336
09:46:18.581 -> 336
09:46:18.581 -> 321
09:46:18.581 -> 320
09:46:18.581 -> 336
09:46:18.581 -> 334
09:46:18.581 -> 318
09:46:18.581 -> 322
09:46:18.616 -> 341
09:46:18.616 -> 337
09:46:18.616 -> 322
09:46:18.616 -> 325
09:46:18.616 -> 343
09:46:18.616 -> 337
09:46:18.651 -> 322
09:46:18.651 -> 328
09:46:18.651 -> 343
09:46:18.651 -> 335
09:46:18.651 -> 322
09:46:18.651 -> 332
09:46:18.651 -> 346
09:46:18.691 -> 337
09:46:18.691 -> 323
09:46:18.691 -> 334
09:46:18.691 -> 347
09:46:18.691 -> 334
09:46:18.691 -> 324
09:46:18.691 -> 336
09:46:18.691 -> 347
09:46:18.731 -> 333
09:46:18.731 -> 324
09:46:18.731 -> 337
09:46:18.731 -> 345
09:46:18.731 -> 331
09:46:18.731 -> 326
09:46:18.731 -> 340
09:46:18.781 -> 345
09:46:18.781 -> 329
09:46:18.781 -> 325
09:46:18.781 -> 341
09:46:18.781 -> 343
09:46:18.781 -> 328
09:46:18.781 -> 328
09:46:18.781 -> 345
09:46:18.781 -> 343
09:46:18.781 -> 328
09:46:18.821 -> 331
09:46:18.821 -> 349
09:46:18.821 -> 344
09:46:18.821 -> 328
09:46:18.821 -> 331
09:46:18.821 -> 345
09:46:18.821 -> 339
09:46:18.821 -> 333
09:46:18.861 -> 350
09:46:18.861 -> 341
09:46:18.861 -> 327
09:46:18.861 -> 334
09:46:18.861 -> 347
09:46:18.861 -> 337
09:46:18.861 -> 327
09:46:18.861 -> 337
09:46:18.896 -> 349
09:46:18.896 -> 338
09:46:18.896 -> 331
09:46:18.896 -> 344
09:46:18.896 -> 355
09:46:18.896 -> 343
09:46:18.931 -> 340
09:46:18.931 -> 356
09:46:18.931 -> 361
09:46:18.931 -> 346
09:46:18.931 -> 344
09:46:18.931 -> 360
09:46:18.931 -> 363
09:46:18.971 -> 345
09:46:18.971 -> 337
09:46:18.971 -> 350
09:46:18.971 -> 348
09:46:18.971 -> 327
09:46:18.971 -> 324
09:46:18.971 -> 340
09:46:18.971 -> 341
09:46:19.011 -> 325
09:46:19.011 -> 326
09:46:19.011 -> 344
09:46:19.011 -> 340
09:46:19.011 -> 323
09:46:19.011 -> 323
09:46:19.011 -> 338
09:46:19.011 -> 338
09:46:19.051 -> 338
09:46:19.051 -> 373
09:46:19.051 -> 430
09:46:19.051 -> 449
09:46:19.051 -> 428
09:46:19.051 -> 405
09:46:19.051 -> 384
09:46:19.091 -> 329
09:46:19.091 -> 281
09:46:19.091 -> 305
09:46:19.091 -> 338
09:46:19.091 -> 332
09:46:19.091 -> 321
09:46:19.091 -> 334
09:46:19.091 -> 344
09:46:19.131 -> 330
09:46:19.131 -> 322
09:46:19.131 -> 335
09:46:19.131 -> 346
09:46:19.131 -> 334
09:46:19.131 -> 326
09:46:19.131 -> 339
09:46:19.170 -> 346
09:46:19.170 -> 332
09:46:19.170 -> 328
09:46:19.170 -> 344
09:46:19.170 -> 332
09:46:19.170 -> 327
09:46:19.170 -> 344
09:46:19.170 -> 346
09:46:19.211 -> 332
09:46:19.211 -> 335
09:46:19.211 -> 352
09:46:19.211 -> 351
09:46:19.211 -> 337
09:46:19.211 -> 341
09:46:19.211 -> 360
09:46:19.251 -> 356
09:46:19.251 -> 340
09:46:19.251 -> 348
09:46:19.251 -> 367
09:46:19.251 -> 360
09:46:19.251 -> 347
09:46:19.251 -> 355
09:46:19.251 -> 374
09:46:19.291 -> 369
09:46:19.291 -> 359
09:46:19.291 -> 370
09:46:19.291 -> 385
09:46:19.291 -> 378
09:46:19.291 -> 367
09:46:19.291 -> 379
09:46:19.291 -> 392
09:46:19.331 -> 380
09:46:19.331 -> 373
09:46:19.331 -> 385
09:46:19.331 -> 395
09:46:19.331 -> 383
09:46:19.331 -> 374
09:46:19.331 -> 382
09:46:19.331 -> 382
09:46:19.371 -> 357
09:46:19.371 -> 344
09:46:19.371 -> 350
09:46:19.371 -> 346
09:46:19.371 -> 324
09:46:19.371 -> 315
09:46:19.371 -> 328
09:46:19.411 -> 328
09:46:19.411 -> 309
09:46:19.411 -> 306
09:46:19.411 -> 323
09:46:19.411 -> 321
09:46:19.411 -> 305
09:46:19.411 -> 307
09:46:19.411 -> 324
09:46:19.451 -> 319
09:46:19.451 -> 303
09:46:19.451 -> 306
09:46:19.451 -> 322
09:46:19.451 -> 316
09:46:19.451 -> 302
09:46:19.451 -> 311
09:46:19.451 -> 327
09:46:19.491 -> 318
09:46:19.491 -> 304
09:46:19.491 -> 311
09:46:19.491 -> 324
09:46:19.491 -> 315
09:46:19.491 -> 304
09:46:19.491 -> 326
09:46:19.491 -> 313
09:46:19.531 -> 304
09:46:19.531 -> 317
09:46:19.531 -> 328
09:46:19.531 -> 316
09:46:19.531 -> 307
09:46:19.531 -> 320
09:46:19.531 -> 327
09:46:19.531 -> 314
09:46:19.571 -> 308
09:46:19.571 -> 322
09:46:19.571 -> 326
09:46:19.571 -> 312
09:46:19.571 -> 309
09:46:19.571 -> 324
09:46:19.571 -> 328
09:46:19.611 -> 313
09:46:19.611 -> 310
09:46:19.611 -> 326
09:46:19.611 -> 325
09:46:19.611 -> 310
09:46:19.611 -> 311
09:46:19.611 -> 328
09:46:19.611 -> 326
09:46:19.651 -> 309
09:46:19.651 -> 312
09:46:19.651 -> 330
09:46:19.651 -> 325
09:46:19.651 -> 310
09:46:19.651 -> 313
09:46:19.651 -> 327
09:46:19.691 -> 320
09:46:19.691 -> 308
09:46:19.691 -> 317
09:46:19.691 -> 330
09:46:19.691 -> 321
09:46:19.691 -> 306
09:46:19.691 -> 315
09:46:19.691 -> 328
09:46:19.731 -> 317
09:46:19.731 -> 308
09:46:19.731 -> 321
09:46:19.731 -> 333
09:46:19.731 -> 319
09:46:19.731 -> 311
09:46:19.731 -> 325
09:46:19.771 -> 333
09:46:19.771 -> 318
09:46:19.771 -> 311
09:46:19.771 -> 323
09:46:19.771 -> 329
09:46:19.771 -> 318
09:46:19.771 -> 315
09:46:19.771 -> 329
09:46:19.811 -> 331
09:46:19.811 -> 316
09:46:19.811 -> 316
09:46:19.811 -> 331
09:46:19.811 -> 333
09:46:19.811 -> 315
09:46:19.811 -> 313
09:46:19.811 -> 331
09:46:19.851 -> 332
09:46:19.851 -> 316
09:46:19.851 -> 332
09:46:19.851 -> 330
09:46:19.851 -> 315
09:46:19.851 -> 316
09:46:19.851 -> 330
09:46:19.851 -> 326
09:46:19.891 -> 313
09:46:19.891 -> 320
09:46:19.891 -> 336
09:46:19.891 -> 326
09:46:19.891 -> 313
09:46:19.891 -> 323
09:46:19.891 -> 337
09:46:19.931 -> 325
09:46:19.931 -> 314
09:46:19.931 -> 325
09:46:19.931 -> 337
09:46:19.931 -> 324
09:46:19.931 -> 317
09:46:19.931 -> 331
09:46:19.931 -> 341
09:46:19.971 -> 325
09:46:19.971 -> 316
09:46:19.971 -> 329
09:46:19.971 -> 337
09:46:19.971 -> 322
09:46:19.971 -> 316
09:46:19.971 -> 333
09:46:19.971 -> 338
09:46:20.011 -> 322
09:46:20.011 -> 319
09:46:20.011 -> 334
09:46:20.011 -> 335
09:46:20.011 -> 320
09:46:20.011 -> 319
09:46:20.011 -> 335
09:46:20.011 -> 333
09:46:20.051 -> 318
09:46:20.051 -> 319
09:46:20.051 -> 336
09:46:20.051 -> 333
09:46:20.051 -> 317
09:46:20.051 -> 322
09:46:20.051 -> 337
09:46:20.051 -> 331
09:46:20.091 -> 316
09:46:20.091 -> 323
09:46:20.091 -> 341
09:46:20.091 -> 336
09:46:20.091 -> 325
09:46:20.091 -> 335
09:46:20.091 -> 349
09:46:20.131 -> 340
09:46:20.131 -> 332
09:46:20.131 -> 343
09:46:20.131 -> 353
09:46:20.131 -> 345
09:46:20.131 -> 338
09:46:20.131 -> 349
09:46:20.131 -> 353
09:46:20.171 -> 337
09:46:20.171 -> 325
09:46:20.171 -> 337
09:46:20.171 -> 321
09:46:20.171 -> 316
09:46:20.171 -> 330
09:46:20.171 -> 335
09:46:20.211 -> 321
09:46:20.211 -> 317
09:46:20.211 -> 332
09:46:20.211 -> 331
09:46:20.211 -> 312
09:46:20.211 -> 305
09:46:20.211 -> 324
09:46:20.211 -> 335
09:46:20.251 -> 341
09:46:20.251 -> 378
09:46:20.251 -> 437
09:46:20.251 -> 451
09:46:20.251 -> 415
09:46:20.251 -> 381
09:46:20.251 -> 358
09:46:20.291 -> 304
09:46:20.291 -> 269
09:46:20.291 -> 298
09:46:20.291 -> 331
09:46:20.291 -> 326
09:46:20.291 -> 314
09:46:20.291 -> 323
09:46:20.291 -> 339
09:46:20.331 -> 329
09:46:20.331 -> 315
09:46:20.331 -> 325
09:46:20.331 -> 340
09:46:20.331 -> 329
09:46:20.331 -> 319
09:46:20.331 -> 331
09:46:20.331 -> 338
09:46:20.371 -> 326
09:46:20.371 -> 320
09:46:20.371 -> 334
09:46:20.371 -> 342
09:46:20.371 -> 328
09:46:20.371 -> 324
09:46:20.371 -> 337
09:46:20.371 -> 343
09:46:20.411 -> 326
09:46:20.411 -> 322
09:46:20.411 -> 343
09:46:20.411 -> 347
09:46:20.411 -> 331
09:46:20.411 -> 329
09:46:20.411 -> 348
09:46:20.451 -> 352
09:46:20.451 -> 339
09:46:20.451 -> 340
09:46:20.451 -> 359
09:46:20.451 -> 359
09:46:20.451 -> 345
09:46:20.451 -> 348
09:46:20.451 -> 367
09:46:20.491 -> 366
09:46:20.491 -> 354
09:46:20.491 -> 360
09:46:20.491 -> 379
09:46:20.491 -> 376
09:46:20.491 -> 364
09:46:20.491 -> 391
09:46:20.491 -> 382
09:46:20.531 -> 374
09:46:20.531 -> 383
09:46:20.531 -> 395
09:46:20.531 -> 380
09:46:20.531 -> 362
09:46:20.531 -> 366
09:46:20.531 -> 369
09:46:20.531 -> 347
09:46:20.571 -> 329
09:46:20.571 -> 333
09:46:20.571 -> 335
09:46:20.571 -> 315
09:46:20.571 -> 304
09:46:20.571 -> 315
09:46:20.571 -> 318
09:46:20.571 -> 300
09:46:20.611 -> 292
09:46:20.611 -> 307
09:46:20.611 -> 312
09:46:20.611 -> 297
09:46:20.611 -> 293
09:46:20.611 -> 309
09:46:20.611 -> 311
09:46:20.651 -> 295
09:46:20.651 -> 292
09:46:20.651 -> 312
09:46:20.651 -> 312
09:46:20.651 -> 295
09:46:20.651 -> 298
09:46:20.651 -> 314
09:46:20.651 -> 312
09:46:20.691 -> 296
09:46:20.691 -> 300
09:46:20.691 -> 314
09:46:20.691 -> 308
09:46:20.691 -> 294
09:46:20.691 -> 299
09:46:20.691 -> 314
09:46:20.731 -> 306
09:46:20.731 -> 293
09:46:20.731 -> 303
09:46:20.731 -> 318
09:46:20.731 -> 306
09:46:20.731 -> 293
09:46:20.731 -> 306
09:46:20.771 -> 322
09:46:20.771 -> 307
09:46:20.771 -> 294
09:46:20.771 -> 307
09:46:20.771 -> 319
09:46:20.771 -> 306
09:46:20.771 -> 296
09:46:20.771 -> 309
09:46:20.811 -> 319
09:46:20.811 -> 306
09:46:20.811 -> 299
09:46:20.811 -> 314
09:46:20.811 -> 319
09:46:20.811 -> 305
09:46:20.811 -> 301
09:46:20.811 -> 316
09:46:20.851 -> 319
09:46:20.851 -> 304
09:46:20.851 -> 320
09:46:20.851 -> 317
09:46:20.851 -> 300
09:46:20.851 -> 300
09:46:20.851 -> 318
09:46:20.851 -> 314
09:46:20.891 -> 302
09:46:20.891 -> 305
09:46:20.891 -> 321
09:46:20.891 -> 315
09:46:20.891 -> 300
09:46:20.891 -> 306
09:46:20.891 -> 320
09:46:20.891 -> 313
09:46:20.931 -> 297
09:46:20.931 -> 305
09:46:20.931 -> 322
09:46:20.931 -> 312
09:46:20.931 -> 300
09:46:20.931 -> 310
09:46:20.931 -> 325
09:46:20.971 -> 314
09:46:20.971 -> 303
09:46:20.971 -> 313
09:46:20.971 -> 325
09:46:20.971 -> 312
09:46:20.971 -> 303
09:46:20.971 -> 316
09:46:20.971 -> 326
09:46:21.011 -> 312
09:46:21.011 -> 305
09:46:21.011 -> 320
09:46:21.011 -> 326
09:46:21.011 -> 310
09:46:21.011 -> 307
09:46:21.011 -> 323
09:46:21.011 -> 328
09:46:21.051 -> 310
09:46:21.051 -> 306
09:46:21.051 -> 324
09:46:21.051 -> 326
09:46:21.051 -> 311
09:46:21.051 -> 311
09:46:21.051 -> 327
09:46:21.051 -> 324
09:46:21.091 -> 309
09:46:21.091 -> 313
09:46:21.091 -> 328
09:46:21.091 -> 321
09:46:21.091 -> 308
09:46:21.091 -> 316
09:46:21.091 -> 331
09:46:21.131 -> 325
09:46:21.131 -> 312
09:46:21.131 -> 317
09:46:21.131 -> 330
09:46:21.131 -> 321
09:46:21.131 -> 308
09:46:21.131 -> 320
09:46:21.131 -> 333
09:46:21.171 -> 322
09:46:21.171 -> 312
09:46:21.171 -> 322
09:46:21.171 -> 320
09:46:21.171 -> 311
09:46:21.171 -> 326
09:46:21.171 -> 338
09:46:21.171 -> 323
09:46:21.211 -> 314
09:46:21.211 -> 326
09:46:21.211 -> 334
09:46:21.211 -> 321
09:46:21.211 -> 315
09:46:21.211 -> 332
09:46:21.211 -> 336
09:46:21.251 -> 318
09:46:21.251 -> 317
09:46:21.251 -> 335
09:46:21.251 -> 337
09:46:21.251 -> 321
09:46:21.251 -> 320
09:46:21.251 -> 338
09:46:21.291 -> 341
09:46:21.291 -> 326
09:46:21.291 -> 329
09:46:21.291 -> 345
09:46:21.291 -> 344
09:46:21.291 -> 332
09:46:21.291 -> 339
09:46:21.291 -> 354
09:46:21.331 -> 344
09:46:21.331 -> 326
09:46:21.331 -> 325
09:46:21.331 -> 337
09:46:21.331 -> 327
09:46:21.331 -> 316
09:46:21.331 -> 325
09:46:21.331 -> 339
09:46:21.371 -> 327
09:46:21.371 -> 313
09:46:21.371 -> 324
09:46:21.371 -> 337
09:46:21.371 -> 325
09:46:21.371 -> 311
09:46:21.371 -> 321
09:46:21.371 -> 333
09:46:21.411 -> 331
09:46:21.411 -> 351
09:46:21.411 -> 408
09:46:21.411 -> 456
09:46:21.411 -> 440
09:46:21.411 -> 400
09:46:21.411 -> 375
09:46:21.451 -> 338
09:46:21.451 -> 279
09:46:21.451 -> 278
09:46:21.451 -> 320
09:46:21.451 -> 333
09:46:21.451 -> 320
09:46:21.451 -> 321
09:46:21.451 -> 337
09:46:21.491 -> 338
09:46:21.491 -> 322
09:46:21.491 -> 322
09:46:21.491 -> 336
09:46:21.491 -> 333
09:46:21.491 -> 319
09:46:21.491 -> 341
09:46:21.491 -> 337
09:46:21.531 -> 323
09:46:21.531 -> 329
09:46:21.531 -> 343
09:46:21.531 -> 336
09:46:21.531 -> 323
09:46:21.531 -> 334
09:46:21.531 -> 349
09:46:21.531 -> 338
09:46:21.571 -> 325
09:46:21.571 -> 337
09:46:21.571 -> 353
09:46:21.571 -> 343
09:46:21.571 -> 332
09:46:21.571 -> 343
09:46:21.571 -> 351
09:46:21.571 -> 334
09:46:21.611 -> 325
09:46:21.611 -> 339
09:46:21.611 -> 348
09:46:21.611 -> 334
09:46:21.611 -> 327
09:46:21.611 -> 345
09:46:21.611 -> 351
09:46:21.651 -> 338
09:46:21.651 -> 334
09:46:21.651 -> 354
09:46:21.651 -> 361
09:46:21.651 -> 348
09:46:21.651 -> 349
09:46:21.651 -> 369
09:46:21.651 -> 373
09:46:21.691 -> 358
09:46:21.691 -> 357
09:46:21.691 -> 373
09:46:21.691 -> 370
09:46:21.691 -> 353
09:46:21.691 -> 350
09:46:21.691 -> 355
09:46:21.731 -> 342
09:46:21.731 -> 320
09:46:21.731 -> 317
09:46:21.731 -> 325
09:46:21.731 -> 309
09:46:21.731 -> 289
09:46:21.731 -> 291
09:46:21.731 -> 301
09:46:21.771 -> 289
09:46:21.771 -> 276
09:46:21.771 -> 284
09:46:21.771 -> 296
09:46:21.771 -> 285
09:46:21.771 -> 273
09:46:21.771 -> 286
09:46:21.811 -> 299
09:46:21.811 -> 286
09:46:21.811 -> 276
09:46:21.811 -> 290
09:46:21.811 -> 298
09:46:21.811 -> 285
09:46:21.811 -> 278
09:46:21.811 -> 293
09:46:21.851 -> 301
09:46:21.851 -> 281
09:46:21.851 -> 298
09:46:21.851 -> 302
09:46:21.851 -> 287
09:46:21.851 -> 284
09:46:21.851 -> 300
09:46:21.851 -> 302
09:46:21.891 -> 287
09:46:21.891 -> 286
09:46:21.891 -> 304
09:46:21.891 -> 304
09:46:21.891 -> 291
09:46:21.891 -> 293
09:46:21.891 -> 309
09:46:21.891 -> 307
09:46:21.931 -> 293
09:46:21.931 -> 298
09:46:21.931 -> 313
09:46:21.931 -> 304
09:46:21.931 -> 289
09:46:21.931 -> 297
09:46:21.931 -> 314
09:46:21.973 -> 307
09:46:21.973 -> 295
09:46:21.973 -> 303
09:46:21.973 -> 317
09:46:21.973 -> 305
09:46:21.973 -> 292
09:46:21.973 -> 303
09:46:21.973 -> 316
09:46:21.973 -> 306
09:46:22.011 -> 297
09:46:22.011 -> 307
09:46:22.011 -> 317
09:46:22.011 -> 307
09:46:22.011 -> 301
09:46:22.011 -> 314
09:46:22.011 -> 320
09:46:22.051 -> 303
09:46:22.051 -> 295
09:46:22.051 -> 313
09:46:22.051 -> 321
09:46:22.051 -> 306
09:46:22.051 -> 299
09:46:22.051 -> 315
09:46:22.051 -> 319
09:46:22.091 -> 302
09:46:22.091 -> 302
09:46:22.091 -> 318
09:46:22.091 -> 319
09:46:22.091 -> 306
09:46:22.091 -> 306
09:46:22.091 -> 321
09:46:22.091 -> 318
09:46:22.131 -> 303
09:46:22.131 -> 307
09:46:22.131 -> 327
09:46:22.131 -> 321
09:46:22.131 -> 307
09:46:22.131 -> 312
09:46:22.131 -> 328
09:46:22.171 -> 318
09:46:22.171 -> 305
09:46:22.171 -> 314
09:46:22.171 -> 318
09:46:22.171 -> 307
09:46:22.171 -> 318
09:46:22.171 -> 330
09:46:22.171 -> 318
09:46:22.211 -> 306
09:46:22.211 -> 319
09:46:22.211 -> 331
09:46:22.211 -> 317
09:46:22.211 -> 309
09:46:22.211 -> 323
09:46:22.211 -> 331
09:46:22.251 -> 316
09:46:22.251 -> 309
09:46:22.251 -> 325
09:46:22.251 -> 331
09:46:22.251 -> 314
09:46:22.251 -> 310
09:46:22.251 -> 329
09:46:22.251 -> 332
09:46:22.291 -> 316
09:46:22.291 -> 315
09:46:22.291 -> 331
09:46:22.291 -> 332
09:46:22.291 -> 318
09:46:22.291 -> 318
09:46:22.291 -> 333
09:46:22.331 -> 331
09:46:22.331 -> 316
09:46:22.331 -> 320
09:46:22.331 -> 338
09:46:22.331 -> 334
09:46:22.331 -> 317
09:46:22.331 -> 319
09:46:22.331 -> 335
09:46:22.371 -> 330
09:46:22.371 -> 319
09:46:22.371 -> 326
09:46:22.371 -> 338
09:46:22.371 -> 329
09:46:22.371 -> 318
09:46:22.371 -> 328
09:46:22.371 -> 341
09:46:22.411 -> 329
09:46:22.411 -> 317
09:46:22.411 -> 329
09:46:22.411 -> 340
09:46:22.411 -> 326
09:46:22.411 -> 318
09:46:22.411 -> 332
09:46:22.411 -> 341
09:46:22.451 -> 330
09:46:22.451 -> 325
09:46:22.451 -> 338
09:46:22.451 -> 350
09:46:22.451 -> 340
09:46:22.451 -> 336
09:46:22.451 -> 352
09:46:22.491 -> 359
09:46:22.491 -> 344
09:46:22.491 -> 345
09:46:22.491 -> 365
09:46:22.491 -> 364
09:46:22.491 -> 344
09:46:22.491 -> 353
09:46:22.491 -> 346
09:46:22.531 -> 325
09:46:22.531 -> 323
09:46:22.531 -> 340
09:46:22.531 -> 337
09:46:22.531 -> 323
09:46:22.531 -> 327
09:46:22.531 -> 341
09:46:22.531 -> 333
09:46:22.571 -> 319
09:46:22.571 -> 321
09:46:22.571 -> 332
09:46:22.571 -> 328
09:46:22.571 -> 333
09:46:22.571 -> 375
09:46:22.571 -> 433
09:46:22.571 -> 453
09:46:22.611 -> 431
09:46:22.611 -> 405
09:46:22.611 -> 376
09:46:22.611 -> 317
09:46:22.611 -> 272
09:46:22.611 -> 299
09:46:22.611 -> 335
09:46:22.611 -> 328
09:46:22.651 -> 320
09:46:22.651 -> 333
09:46:22.651 -> 339
09:46:22.651 -> 326
09:46:22.651 -> 323
09:46:22.651 -> 341
09:46:22.651 -> 345
09:46:22.691 -> 328
09:46:22.691 -> 326
09:46:22.691 -> 343
09:46:22.691 -> 345
09:46:22.691 -> 331
09:46:22.691 -> 330
09:46:22.691 -> 345
09:46:22.691 -> 343
09:46:22.731 -> 329
09:46:22.731 -> 332
09:46:22.731 -> 349
09:46:22.731 -> 347
09:46:22.731 -> 332
09:46:22.731 -> 337
09:46:22.731 -> 356
09:46:22.771 -> 350
09:46:22.771 -> 337
09:46:22.771 -> 342
09:46:22.771 -> 361
09:46:22.771 -> 356
09:46:22.771 -> 345
09:46:22.771 -> 354
09:46:22.771 -> 371
09:46:22.811 -> 363
09:46:22.811 -> 351
09:46:22.811 -> 362
09:46:22.811 -> 379
09:46:22.811 -> 371
09:46:22.811 -> 364
09:46:22.811 -> 379
09:46:22.851 -> 392
09:46:22.851 -> 377
09:46:22.851 -> 390
09:46:22.851 -> 399
09:46:22.851 -> 388
09:46:22.851 -> 385
09:46:22.851 -> 401
09:46:22.851 -> 407
09:46:22.891 -> 389
09:46:22.891 -> 380
09:46:22.891 -> 390
09:46:22.891 -> 384
09:46:22.891 -> 358
09:46:22.891 -> 346
09:46:22.891 -> 354
09:46:22.891 -> 348
09:46:22.931 -> 325
09:46:22.931 -> 319
09:46:22.931 -> 331
09:46:22.931 -> 325
09:46:22.931 -> 307
09:46:22.931 -> 308
09:46:22.931 -> 324
09:46:22.931 -> 320
09:46:22.971 -> 304
09:46:22.971 -> 307
09:46:22.971 -> 322
09:46:22.971 -> 314
09:46:22.971 -> 301
09:46:22.971 -> 310
09:46:22.971 -> 327
09:46:23.011 -> 318
09:46:23.011 -> 304
09:46:23.011 -> 314
09:46:23.011 -> 328
09:46:23.011 -> 315
09:46:23.011 -> 305
09:46:23.011 -> 315
09:46:23.011 -> 327
09:46:23.051 -> 313
09:46:23.051 -> 304
09:46:23.051 -> 318
09:46:23.051 -> 329
09:46:23.051 -> 315
09:46:23.051 -> 305
09:46:23.051 -> 320
09:46:23.051 -> 326
09:46:23.091 -> 314
09:46:23.091 -> 310
09:46:23.091 -> 323
09:46:23.091 -> 326
09:46:23.091 -> 311
09:46:23.091 -> 309
09:46:23.091 -> 326
09:46:23.091 -> 327
09:46:23.131 -> 313
09:46:23.131 -> 313
09:46:23.131 -> 329
09:46:23.131 -> 326
09:46:23.131 -> 310
09:46:23.131 -> 312
09:46:23.131 -> 329
09:46:23.171 -> 327
09:46:23.171 -> 311
09:46:23.171 -> 315
09:46:23.171 -> 326
09:46:23.171 -> 311
09:46:23.171 -> 317
09:46:23.171 -> 330
09:46:23.171 -> 321
09:46:23.211 -> 310
09:46:23.211 -> 318
09:46:23.211 -> 330
09:46:23.211 -> 318
09:46:23.211 -> 307
09:46:23.211 -> 320
09:46:23.211 -> 333
09:46:23.211 -> 321
09:46:23.251 -> 310
09:46:23.251 -> 324
09:46:23.251 -> 335
09:46:23.251 -> 320
09:46:23.251 -> 310
09:46:23.251 -> 324
09:46:23.251 -> 332
09:46:23.291 -> 316
09:46:23.291 -> 311
09:46:23.291 -> 327
09:46:23.291 -> 334
09:46:23.291 -> 319
09:46:23.291 -> 315
09:46:23.291 -> 330
09:46:23.291 -> 331
09:46:23.331 -> 316
09:46:23.331 -> 315
09:46:23.331 -> 333
09:46:23.331 -> 331
09:46:23.331 -> 315
09:46:23.331 -> 318
09:46:23.331 -> 334
09:46:23.371 -> 331
09:46:23.371 -> 315
09:46:23.371 -> 318
09:46:23.371 -> 335
09:46:23.371 -> 329
09:46:23.371 -> 314
09:46:23.371 -> 319
09:46:23.371 -> 334
09:46:23.421 -> 326
09:46:23.421 -> 311
09:46:23.421 -> 318
09:46:23.421 -> 333
09:46:23.421 -> 326
09:46:23.421 -> 314
09:46:23.421 -> 323
09:46:23.421 -> 334
09:46:23.421 -> 323
09:46:23.421 -> 314
09:46:23.461 -> 324
09:46:23.461 -> 334
09:46:23.461 -> 321
09:46:23.461 -> 312
09:46:23.461 -> 325
09:46:23.461 -> 334
09:46:23.461 -> 320
09:46:23.461 -> 313
09:46:23.501 -> 329
09:46:23.501 -> 334
09:46:23.501 -> 320
09:46:23.501 -> 330
09:46:23.501 -> 334
09:46:23.501 -> 317
09:46:23.501 -> 314
09:46:23.541 -> 331
09:46:23.541 -> 331
09:46:23.541 -> 315
09:46:23.541 -> 314
09:46:23.541 -> 330
09:46:23.541 -> 327
09:46:23.541 -> 309
09:46:23.541 -> 312
09:46:23.581 -> 330
09:46:23.581 -> 326
09:46:23.581 -> 312
09:46:23.581 -> 315
09:46:23.581 -> 330
09:46:23.581 -> 323
09:46:23.581 -> 309
09:46:23.621 -> 317
09:46:23.621 -> 333
09:46:23.621 -> 327
09:46:23.621 -> 320
09:46:23.621 -> 331
09:46:23.621 -> 346
09:46:23.621 -> 332
09:46:23.621 -> 321
09:46:23.671 -> 336
09:46:23.671 -> 349
09:46:23.671 -> 334
09:46:23.671 -> 320
09:46:23.671 -> 331
09:46:23.671 -> 338
09:46:23.671 -> 321
09:46:23.671 -> 306
09:46:23.671 -> 319
09:46:23.671 -> 323
09:46:23.711 -> 307
09:46:23.711 -> 303
09:46:23.711 -> 319
09:46:23.711 -> 322
09:46:23.711 -> 307
09:46:23.711 -> 303
09:46:23.711 -> 317
09:46:23.711 -> 313
09:46:23.751 -> 301
09:46:23.751 -> 314
09:46:23.751 -> 358
09:46:23.751 -> 393
09:46:23.751 -> 404
09:46:23.751 -> 398
09:46:23.751 -> 382
09:46:23.791 -> 344
09:46:23.791 -> 293
09:46:23.791 -> 265
09:46:23.791 -> 287
09:46:23.791 -> 305
09:46:23.791 -> 299
09:46:23.791 -> 306
09:46:23.791 -> 322
09:46:23.831 -> 315
09:46:23.831 -> 303
09:46:23.831 -> 313
09:46:23.831 -> 326
09:46:23.831 -> 307
09:46:23.831 -> 327
09:46:23.831 -> 330
09:46:23.871 -> 305
09:46:23.871 -> 297
09:46:23.871 -> 315
09:46:23.871 -> 329
09:46:23.871 -> 317
09:46:23.871 -> 308
09:46:23.871 -> 322
09:46:23.871 -> 331
09:46:23.911 -> 317
09:46:23.911 -> 313
09:46:23.911 -> 329
09:46:23.911 -> 335
09:46:23.911 -> 320
09:46:23.911 -> 318
09:46:23.911 -> 336
09:46:23.911 -> 337
09:46:23.951 -> 321
09:46:23.951 -> 324
09:46:23.951 -> 345
09:46:23.951 -> 347
09:46:23.951 -> 333
09:46:23.951 -> 336
09:46:23.951 -> 354
09:46:23.951 -> 352
09:46:23.991 -> 339
09:46:23.991 -> 347
09:46:23.991 -> 365
09:46:23.991 -> 361
09:46:23.991 -> 349
09:46:23.991 -> 356
09:46:23.991 -> 373
09:46:24.031 -> 368
09:46:24.031 -> 358
09:46:24.031 -> 370
09:46:24.031 -> 391
09:46:24.031 -> 385
09:46:24.031 -> 357
09:46:24.031 -> 354
09:46:24.031 -> 363
09:46:24.071 -> 349
09:46:24.071 -> 332
09:46:24.071 -> 336
09:46:24.071 -> 339
09:46:24.071 -> 319
09:46:24.071 -> 304
09:46:24.071 -> 313
09:46:24.071 -> 317
09:46:24.121 -> 301
09:46:24.121 -> 293
09:46:24.121 -> 305
09:46:24.121 -> 309
09:46:24.121 -> 295
09:46:24.121 -> 290
09:46:24.121 -> 306
09:46:24.121 -> 309
09:46:24.121 -> 295
09:46:24.161 -> 291
09:46:24.161 -> 308
09:46:24.161 -> 315
09:46:24.161 -> 306
09:46:24.161 -> 295
09:46:24.161 -> 299
09:46:24.161 -> 288
09:46:24.161 -> 294
09:46:24.201 -> 312
09:46:24.201 -> 307
09:46:24.201 -> 292
09:46:24.201 -> 296
09:46:24.201 -> 312
09:46:24.201 -> 305
09:46:24.201 -> 293
09:46:24.201 -> 302
09:46:24.241 -> 316
09:46:24.241 -> 307
09:46:24.241 -> 295
09:46:24.241 -> 304
09:46:24.241 -> 318
09:46:24.241 -> 307
09:46:24.241 -> 298
09:46:24.281 -> 312
09:46:24.281 -> 322
09:46:24.281 -> 309
09:46:24.281 -> 303
09:46:24.281 -> 325
09:46:24.281 -> 329
09:46:24.281 -> 302
09:46:24.281 -> 294
09:46:24.321 -> 313
09:46:24.321 -> 321
09:46:24.321 -> 307
09:46:24.321 -> 304
09:46:24.321 -> 322
09:46:24.321 -> 325
09:46:24.321 -> 308
09:46:24.321 -> 304
09:46:24.361 -> 322
09:46:24.361 -> 325
09:46:24.361 -> 310
09:46:24.361 -> 311
09:46:24.361 -> 328
09:46:24.361 -> 326
09:46:24.361 -> 311
09:46:24.361 -> 312
09:46:24.401 -> 331
09:46:24.401 -> 335
09:46:24.401 -> 311
09:46:24.401 -> 304
09:46:24.401 -> 322
09:46:24.401 -> 318
09:46:24.401 -> 303
09:46:24.401 -> 312
09:46:24.441 -> 329
09:46:24.441 -> 320
09:46:24.441 -> 308
09:46:24.441 -> 317
09:46:24.441 -> 331
09:46:24.441 -> 318
09:46:24.441 -> 307
09:46:24.481 -> 322
09:46:24.481 -> 335
09:46:24.481 -> 323
09:46:24.481 -> 315
09:46:24.481 -> 331
09:46:24.481 -> 348
09:46:24.481 -> 326
09:46:24.481 -> 328
09:46:24.521 -> 340
09:46:24.521 -> 326
09:46:24.521 -> 327
09:46:24.521 -> 346
09:46:24.521 -> 347
09:46:24.521 -> 327
09:46:24.521 -> 320
09:46:24.561 -> 330
09:46:24.561 -> 330
09:46:24.561 -> 313
09:46:24.561 -> 312
09:46:24.561 -> 331
09:46:24.561 -> 332
09:46:24.561 -> 315
09:46:24.561 -> 316
09:46:24.601 -> 330
09:46:24.601 -> 329
09:46:24.601 -> 321
09:46:24.601 -> 324
09:46:24.601 -> 326
09:46:24.601 -> 318
09:46:24.601 -> 314
09:46:24.641 -> 346
09:46:24.641 -> 390
09:46:24.641 -> 401
09:46:24.641 -> 381
09:46:24.641 -> 370
09:46:24.641 -> 360
09:46:24.641 -> 323
09:46:24.641 -> 277
09:46:24.681 -> 282
09:46:24.681 -> 314
09:46:24.681 -> 323
09:46:24.681 -> 320
09:46:24.681 -> 342
09:46:24.681 -> 345
09:46:24.681 -> 326
09:46:24.681 -> 320
09:46:24.721 -> 337
09:46:24.721 -> 346
09:46:24.721 -> 331
09:46:24.721 -> 327
09:46:24.721 -> 342
09:46:24.721 -> 348
09:46:24.721 -> 332
09:46:24.721 -> 332
09:46:24.761 -> 346
09:46:24.761 -> 344
09:46:24.761 -> 331
09:46:24.761 -> 331
09:46:24.761 -> 347
09:46:24.761 -> 351
09:46:24.761 -> 343
09:46:24.761 -> 339
09:46:24.801 -> 345
09:46:24.801 -> 344
09:46:24.801 -> 336
09:46:24.801 -> 341
09:46:24.801 -> 357
09:46:24.801 -> 353
09:46:24.801 -> 342
09:46:24.841 -> 352
09:46:24.841 -> 369
09:46:24.841 -> 350
09:46:24.841 -> 365
09:46:24.841 -> 382
09:46:24.841 -> 375
09:46:24.841 -> 372
09:46:24.841 -> 374
09:46:24.881 -> 384
09:46:24.881 -> 377
09:46:24.881 -> 372
09:46:24.881 -> 386
09:46:24.881 -> 396
09:46:24.881 -> 385
09:46:24.881 -> 377
09:46:24.881 -> 390
09:46:24.921 -> 402
09:46:24.921 -> 384
09:46:24.921 -> 371
09:46:24.921 -> 385
09:46:24.921 -> 386
09:46:24.921 -> 351
09:46:24.921 -> 333
09:46:24.921 -> 347
09:46:24.961 -> 347
09:46:24.961 -> 326
09:46:24.961 -> 322
09:46:24.961 -> 333
09:46:24.961 -> 331
09:46:24.961 -> 314
09:46:24.961 -> 317
09:46:25.001 -> 334
09:46:25.001 -> 331
09:46:25.001 -> 313
09:46:25.001 -> 318
09:46:25.001 -> 341
09:46:25.001 -> 335
09:46:25.001 -> 307
09:46:25.001 -> 310
09:46:25.041 -> 328
09:46:25.041 -> 322
09:46:25.041 -> 314
09:46:25.041 -> 319
09:46:25.041 -> 332
09:46:25.041 -> 322
09:46:25.041 -> 311
09:46:25.081 -> 324
09:46:25.081 -> 339
09:46:25.081 -> 324
09:46:25.081 -> 318
09:46:25.081 -> 329
09:46:25.081 -> 329
09:46:25.081 -> 315
09:46:25.081 -> 312
09:46:25.121 -> 325
09:46:25.121 -> 333
09:46:25.121 -> 317
09:46:25.121 -> 312
09:46:25.121 -> 329
09:46:25.121 -> 334
09:46:25.121 -> 321
09:46:25.161 -> 318
09:46:25.161 -> 340
09:46:25.161 -> 332
09:46:25.161 -> 311
09:46:25.161 -> 308
09:46:25.161 -> 334
09:46:25.161 -> 318
09:46:25.161 -> 319
09:46:25.201 -> 338
09:46:25.201 -> 333
09:46:25.201 -> 319
09:46:25.201 -> 321
09:46:25.201 -> 344
09:46:25.201 -> 341
09:46:25.201 -> 333
09:46:25.201 -> 332
09:46:25.241 -> 335
09:46:25.241 -> 333
09:46:25.241 -> 324
09:46:25.241 -> 332
09:46:25.241 -> 346
09:46:25.241 -> 342
09:46:25.241 -> 330
09:46:25.241 -> 341
09:46:25.281 -> 354
09:46:25.281 -> 350
09:46:25.281 -> 331
09:46:25.281 -> 327
09:46:25.281 -> 332
09:46:25.281 -> 318
09:46:25.281 -> 313
09:46:25.321 -> 324
09:46:25.321 -> 336
09:46:25.321 -> 322
09:46:25.321 -> 310
09:46:25.321 -> 328
09:46:25.321 -> 337
09:46:25.321 -> 321
09:46:25.321 -> 318
09:46:25.361 -> 343
09:46:25.361 -> 337
09:46:25.361 -> 300
09:46:25.361 -> 300
09:46:25.361 -> 340
09:46:25.361 -> 372
09:46:25.361 -> 380
09:46:25.361 -> 383
09:46:25.401 -> 383
09:46:25.401 -> 363
09:46:25.401 -> 318
09:46:25.401 -> 292
09:46:25.401 -> 291
09:46:25.401 -> 307
09:46:25.401 -> 315
09:46:25.401 -> 320
09:46:25.441 -> 332
09:46:25.441 -> 333
09:46:25.441 -> 325
09:46:25.441 -> 333
09:46:25.441 -> 347
09:46:25.441 -> 342
09:46:25.441 -> 322
09:46:25.481 -> 335
09:46:25.481 -> 359
09:46:25.481 -> 341
09:46:25.481 -> 318
09:46:25.481 -> 331
09:46:25.481 -> 346
09:46:25.481 -> 338
09:46:25.481 -> 343
09:46:25.521 -> 353
09:46:25.521 -> 340
09:46:25.521 -> 334
09:46:25.521 -> 345
09:46:25.521 -> 354
09:46:25.521 -> 341
09:46:25.521 -> 331
09:46:25.521 -> 356
09:46:25.561 -> 361
09:46:25.561 -> 336
09:46:25.561 -> 326
09:46:25.561 -> 353
09:46:25.561 -> 362
09:46:25.561 -> 347
09:46:25.561 -> 348
09:46:25.601 -> 367
09:46:25.601 -> 368
09:46:25.601 -> 353
09:46:25.601 -> 357
09:46:25.601 -> 377
09:46:25.601 -> 378
09:46:25.601 -> 367
09:46:25.601 -> 381
09:46:25.641 -> 388
09:46:25.641 -> 372
09:46:25.641 -> 357
09:46:25.641 -> 367
09:46:25.641 -> 385
09:46:25.641 -> 379
09:46:25.641 -> 360
09:46:25.681 -> 358
09:46:25.681 -> 367
09:46:25.681 -> 351
09:46:25.681 -> 333
09:46:25.681 -> 336
09:46:25.681 -> 352
09:46:25.681 -> 326
09:46:25.681 -> 303
09:46:25.721 -> 314
09:46:25.721 -> 327
09:46:25.721 -> 314
09:46:25.721 -> 303
09:46:25.721 -> 315
09:46:25.721 -> 326
09:46:25.721 -> 313
09:46:25.721 -> 309
09:46:25.761 -> 315
09:46:25.761 -> 324
09:46:25.761 -> 313
09:46:25.761 -> 298
09:46:25.761 -> 309
09:46:25.761 -> 312
09:46:25.761 -> 304
09:46:25.761 -> 309
09:46:25.801 -> 319
09:46:25.801 -> 317
09:46:25.801 -> 307
09:46:25.801 -> 307
09:46:25.801 -> 318
09:46:25.801 -> 324
09:46:25.801 -> 313
09:46:25.841 -> 307
09:46:25.841 -> 319
09:46:25.841 -> 306
09:46:25.841 -> 307
09:46:25.841 -> 325
09:46:25.841 -> 320
09:46:25.841 -> 301
09:46:25.841 -> 311
09:46:25.881 -> 330
09:46:25.881 -> 331
09:46:25.881 -> 317
09:46:25.881 -> 310
09:46:25.881 -> 320
09:46:25.881 -> 313
09:46:25.881 -> 305
09:46:25.881 -> 315
09:46:25.921 -> 326
09:46:25.921 -> 315
09:46:25.921 -> 311
09:46:25.921 -> 322
09:46:25.921 -> 327
09:46:25.921 -> 316
09:46:25.921 -> 312
09:46:25.921 -> 328
09:46:25.961 -> 333
09:46:25.961 -> 323
09:46:25.961 -> 324
09:46:25.961 -> 328
09:46:25.961 -> 330
09:46:25.961 -> 325
09:46:25.961 -> 326
09:46:25.961 -> 338
09:46:26.001 -> 339
09:46:26.001 -> 320
09:46:26.001 -> 312
09:46:26.001 -> 322
09:46:26.001 -> 325
09:46:26.001 -> 307
09:46:26.001 -> 310
09:46:26.041 -> 321
09:46:26.041 -> 321
09:46:26.041 -> 306
09:46:26.041 -> 317
09:46:26.041 -> 327
09:46:26.041 -> 311
09:46:26.041 -> 296
09:46:26.041 -> 307
09:46:26.081 -> 325
09:46:26.081 -> 309
09:46:26.081 -> 304
09:46:26.081 -> 332
09:46:26.081 -> 369
09:46:26.081 -> 372
09:46:26.081 -> 348
09:46:26.121 -> 340
09:46:26.121 -> 337
09:46:26.121 -> 314
09:46:26.121 -> 275
09:46:26.121 -> 266
09:46:26.121 -> 298
09:46:26.121 -> 310
09:46:26.121 -> 307
09:46:26.161 -> 314
09:46:26.161 -> 322
09:46:26.161 -> 313
09:46:26.161 -> 315
09:46:26.161 -> 333
09:46:26.161 -> 314
09:46:26.161 -> 312
09:46:26.201 -> 324
09:46:26.201 -> 329
09:46:26.201 -> 315
09:46:26.201 -> 317
09:46:26.201 -> 332
09:46:26.201 -> 331
09:46:26.201 -> 325
09:46:26.201 -> 316
09:46:26.241 -> 326
09:46:26.241 -> 327
09:46:26.241 -> 316
09:46:26.241 -> 320
09:46:26.241 -> 334
09:46:26.241 -> 332
09:46:26.241 -> 321
09:46:26.241 -> 333
09:46:26.281 -> 350
09:46:26.281 -> 340
09:46:26.281 -> 329
09:46:26.281 -> 341
09:46:26.281 -> 357
09:46:26.281 -> 349
09:46:26.281 -> 344
09:46:26.281 -> 352
09:46:26.321 -> 368
09:46:26.321 -> 366
09:46:26.321 -> 349
09:46:26.321 -> 355
09:46:26.321 -> 371
09:46:26.321 -> 366
09:46:26.321 -> 363
09:46:26.361 -> 384
09:46:26.361 -> 393
09:46:26.361 -> 378
09:46:26.361 -> 367
09:46:26.361 -> 384
09:46:26.361 -> 388
09:46:26.361 -> 366
09:46:26.361 -> 351
09:46:26.401 -> 359
09:46:26.401 -> 355
09:46:26.401 -> 337
09:46:26.401 -> 337
09:46:26.401 -> 348
09:46:26.401 -> 328
09:46:26.401 -> 309
09:46:26.401 -> 310
09:46:26.441 -> 328
09:46:26.441 -> 329
09:46:26.441 -> 316
09:46:26.441 -> 319
09:46:26.441 -> 333
09:46:26.441 -> 326
09:46:26.441 -> 313
09:46:26.441 -> 319
09:46:26.478 -> 332
09:46:26.478 -> 326
09:46:26.478 -> 312
09:46:26.478 -> 328
09:46:26.478 -> 349
09:46:26.478 -> 322
09:46:26.478 -> 318
09:46:26.521 -> 337
09:46:26.521 -> 329
09:46:26.521 -> 316
09:46:26.521 -> 323
09:46:26.521 -> 337
09:46:26.521 -> 326
09:46:26.521 -> 314
09:46:26.521 -> 326
09:46:26.561 -> 334
09:46:26.561 -> 320
09:46:26.561 -> 313
09:46:26.561 -> 330
09:46:26.561 -> 335
09:46:26.561 -> 320
09:46:26.561 -> 312
09:46:26.561 -> 328
09:46:26.601 -> 340
09:46:26.601 -> 314
09:46:26.601 -> 300
09:46:26.601 -> 320
09:46:26.601 -> 326
09:46:26.601 -> 313
09:46:26.601 -> 314
09:46:26.641 -> 327
09:46:26.641 -> 325
09:46:26.641 -> 310
09:46:26.641 -> 312
09:46:26.641 -> 333
09:46:26.641 -> 332
09:46:26.641 -> 316
09:46:26.681 -> 320
09:46:26.681 -> 335
09:46:26.681 -> 331
09:46:26.681 -> 317
09:46:26.681 -> 324
09:46:26.681 -> 345
09:46:26.681 -> 329
09:46:26.681 -> 310
09:46:26.721 -> 321
09:46:26.721 -> 340
09:46:26.721 -> 329
09:46:26.721 -> 311
09:46:26.721 -> 316
09:46:26.721 -> 328
09:46:26.721 -> 318
09:46:26.721 -> 307
09:46:26.761 -> 316
09:46:26.761 -> 325
09:46:26.761 -> 311
09:46:26.761 -> 299
09:46:26.761 -> 312
09:46:26.761 -> 322
09:46:26.761 -> 308
09:46:26.761 -> 297
09:46:26.801 -> 309
09:46:26.801 -> 312
09:46:26.801 -> 298
09:46:26.801 -> 308
09:46:26.801 -> 332
09:46:26.801 -> 346
09:46:26.801 -> 351
09:46:26.801 -> 359
09:46:26.841 -> 366
09:46:26.841 -> 300
09:46:26.841 -> 267
09:46:26.841 -> 273
09:46:26.841 -> 294
09:46:26.841 -> 297
09:46:26.841 -> 300
09:46:26.881 -> 317
09:46:26.881 -> 314
09:46:26.881 -> 302
09:46:26.881 -> 307
09:46:26.881 -> 322
09:46:26.881 -> 318
09:46:26.881 -> 304
09:46:26.881 -> 310
09:46:26.921 -> 324
09:46:26.921 -> 316
09:46:26.921 -> 313
09:46:26.921 -> 319
09:46:26.921 -> 318
09:46:26.921 -> 307
09:46:26.921 -> 302
09:46:26.921 -> 316
09:46:26.961 -> 328
09:46:26.961 -> 314
09:46:26.961 -> 305
09:46:26.961 -> 320
09:46:26.961 -> 331
09:46:26.961 -> 314
09:46:26.961 -> 308
09:46:26.961 -> 325
09:46:27.001 -> 334
09:46:27.001 -> 322
09:46:27.001 -> 317
09:46:27.001 -> 334
09:46:27.001 -> 338
09:46:27.001 -> 324
09:46:27.001 -> 325
09:46:27.041 -> 341
09:46:27.041 -> 342
09:46:27.041 -> 331
09:46:27.041 -> 340
09:46:27.041 -> 365
09:46:27.041 -> 351
09:46:27.041 -> 326
09:46:27.041 -> 334
09:46:27.081 -> 356
09:46:27.081 -> 357
09:46:27.081 -> 342
09:46:27.081 -> 346
09:46:27.081 -> 360
09:46:27.081 -> 350
09:46:27.081 -> 331
09:46:27.121 -> 336
09:46:27.121 -> 347
09:46:27.121 -> 332
09:46:27.121 -> 310
09:46:27.121 -> 314
09:46:27.121 -> 323
09:46:27.121 -> 307
09:46:27.121 -> 294
09:46:27.161 -> 304
09:46:27.161 -> 316
09:46:27.161 -> 303
09:46:27.161 -> 292
09:46:27.161 -> 315
09:46:27.161 -> 302
09:46:27.161 -> 295
09:46:27.201 -> 316
09:46:27.201 -> 327
09:46:27.201 -> 299
09:46:27.201 -> 285
09:46:27.201 -> 306
09:46:27.201 -> 316
09:46:27.201 -> 303
09:46:27.201 -> 299
09:46:27.241 -> 313
09:46:27.241 -> 315
09:46:27.241 -> 299
09:46:27.241 -> 300
09:46:27.241 -> 316
09:46:27.241 -> 316
09:46:27.241 -> 300
09:46:27.241 -> 303
09:46:27.281 -> 320
09:46:27.281 -> 318
09:46:27.281 -> 301
09:46:27.281 -> 304
09:46:27.281 -> 320
09:46:27.281 -> 314
09:46:27.281 -> 303
09:46:27.281 -> 311
09:46:27.321 -> 333
09:46:27.321 -> 316
09:46:27.321 -> 294
09:46:27.321 -> 304
09:46:27.321 -> 323
09:46:27.321 -> 314
09:46:27.321 -> 300
09:46:27.361 -> 311
09:46:27.361 -> 323
09:46:27.361 -> 312
09:46:27.361 -> 304
09:46:27.361 -> 318
09:46:27.361 -> 329
09:46:27.361 -> 313
09:46:27.361 -> 306
09:46:27.401 -> 320
09:46:27.401 -> 327
09:46:27.401 -> 314
09:46:27.401 -> 310
09:46:27.401 -> 324
09:46:27.401 -> 327
09:46:27.401 -> 312
09:46:27.401 -> 308
09:46:27.441 -> 326
09:46:27.441 -> 328
09:46:27.441 -> 313
09:46:27.441 -> 311
09:46:27.441 -> 327
09:46:27.441 -> 325
09:46:27.441 -> 312
09:46:27.441 -> 322
09:46:27.481 -> 329
09:46:27.481 -> 315
09:46:27.481 -> 302
09:46:27.481 -> 310
09:46:27.481 -> 329
09:46:27.481 -> 322
09:46:27.481 -> 313
09:46:27.481 -> 329
09:46:27.521 -> 321
09:46:27.521 -> 309
09:46:27.521 -> 319
09:46:27.521 -> 333
09:46:27.521 -> 321
09:46:27.521 -> 308
09:46:27.521 -> 318
09:46:27.561 -> 333
09:46:27.561 -> 322
09:46:27.561 -> 311
09:46:27.561 -> 324
09:46:27.561 -> 338
09:46:27.561 -> 324
09:46:27.561 -> 314
09:46:27.561 -> 325
09:46:27.601 -> 335
09:46:27.601 -> 323
09:46:27.601 -> 318
09:46:27.601 -> 332
09:46:27.601 -> 335
09:46:27.601 -> 320
09:46:27.601 -> 324
09:46:27.641 -> 332
09:46:27.641 -> 324
09:46:27.641 -> 308
09:46:27.641 -> 310
09:46:27.641 -> 328
09:46:27.641 -> 330
09:46:27.641 -> 312
09:46:27.641 -> 313
09:46:27.679 -> 330
09:46:27.679 -> 327
09:46:27.679 -> 312
09:46:27.679 -> 315
09:46:27.679 -> 330
09:46:27.679 -> 322
09:46:27.679 -> 305
09:46:27.721 -> 309
09:46:27.721 -> 324
09:46:27.721 -> 318
09:46:27.721 -> 305
09:46:27.721 -> 311
09:46:27.721 -> 324
09:46:27.721 -> 314
09:46:27.721 -> 300
09:46:27.761 -> 311
09:46:27.761 -> 323
09:46:27.761 -> 311
09:46:27.761 -> 301
09:46:27.761 -> 313
09:46:27.761 -> 323
09:46:27.761 -> 310
09:46:27.761 -> 302
09:46:27.801 -> 315
09:46:27.801 -> 323
09:46:27.801 -> 309
09:46:27.801 -> 304
09:46:27.801 -> 319
09:46:27.801 -> 322
09:46:27.801 -> 306
09:46:27.801 -> 303
09:46:27.841 -> 320
09:46:27.841 -> 306
09:46:27.841 -> 304
09:46:27.841 -> 321
09:46:27.841 -> 322
09:46:27.841 -> 308
09:46:27.841 -> 307
09:46:27.841 -> 322
09:46:27.881 -> 323
09:46:27.881 -> 308
09:46:27.881 -> 310
09:46:27.881 -> 326
09:46:27.881 -> 322
09:46:27.881 -> 310
09:46:27.881 -> 315
09:46:27.921 -> 328
09:46:27.921 -> 321
09:46:27.921 -> 308
09:46:27.921 -> 316
09:46:27.921 -> 332
09:46:27.921 -> 323
09:46:27.921 -> 308
09:46:27.921 -> 317
09:46:27.961 -> 331
09:46:27.961 -> 321
09:46:27.961 -> 309
09:46:27.961 -> 319
09:46:27.961 -> 331
09:46:27.961 -> 320
09:46:27.961 -> 311
09:46:27.961 -> 325
09:46:28.001 -> 335
09:46:28.001 -> 321
09:46:28.001 -> 315
09:46:28.001 -> 330
09:46:28.001 -> 335
09:46:28.001 -> 321
09:46:28.001 -> 317
09:46:28.001 -> 333
09:46:28.041 -> 340
09:46:28.041 -> 328
09:46:28.041 -> 328
09:46:28.041 -> 344
09:46:28.041 -> 348
09:46:28.041 -> 335
09:46:28.041 -> 335
09:46:28.081 -> 349
09:46:28.081 -> 348
09:46:28.081 -> 335
09:46:28.081 -> 336
09:46:28.081 -> 351
09:46:28.081 -> 345
09:46:28.081 -> 324
09:46:28.081 -> 325
09:46:28.121 -> 339
09:46:28.121 -> 332
09:46:28.121 -> 319
09:46:28.121 -> 325
09:46:28.121 -> 341
09:46:28.121 -> 333
09:46:28.121 -> 320
09:46:28.161 -> 327
09:46:28.161 -> 338
09:46:28.161 -> 326
09:46:28.161 -> 315
09:46:28.161 -> 355
09:46:28.161 -> 369
09:46:28.161 -> 392
09:46:28.161 -> 421
09:46:28.201 -> 424
09:46:28.201 -> 387
09:46:28.201 -> 351
09:46:28.201 -> 329
09:46:28.201 -> 316
09:46:28.201 -> 313
09:46:28.201 -> 319
09:46:28.241 -> 338
09:46:28.241 -> 344
09:46:28.241 -> 326
09:46:28.241 -> 320
