08:32:16.785 -> 307
08:32:16.785 -> 318
08:32:16.785 -> 311
08:32:16.785 -> 300
08:32:16.785 -> 309
08:32:16.785 -> 323
08:32:16.785 -> 314
08:32:16.825 -> 304
08:32:16.825 -> 310
08:32:16.825 -> 318
08:32:16.825 -> 303
08:32:16.825 -> 311
08:32:16.825 -> 320
08:32:16.825 -> 310
08:32:16.825 -> 305
08:32:16.865 -> 318
08:32:16.865 -> 322
08:32:16.865 -> 306
08:32:16.865 -> 299
08:32:16.865 -> 315
08:32:16.865 -> 319
08:32:16.865 -> 308
08:32:16.865 -> 307
08:32:16.905 -> 318
08:32:16.905 -> 322
08:32:16.905 -> 313
08:32:16.905 -> 309
08:32:16.905 -> 320
08:32:16.905 -> 328
08:32:16.905 -> 320
08:32:16.905 -> 325
08:32:16.945 -> 334
08:32:16.945 -> 329
08:32:16.945 -> 311
08:32:16.945 -> 304
08:32:16.945 -> 309
08:32:16.945 -> 315
08:32:16.945 -> 325
08:32:16.985 -> 344
08:32:16.985 -> 337
08:32:16.985 -> 303
08:32:16.985 -> 294
08:32:16.985 -> 299
08:32:16.985 -> 340
08:32:16.985 -> 354
08:32:16.985 -> 335
08:32:17.025 -> 321
08:32:17.025 -> 337
08:32:17.025 -> 359
08:32:17.025 -> 368
08:32:17.025 -> 360
08:32:17.025 -> 353
08:32:17.025 -> 342
08:32:17.025 -> 342
08:32:17.065 -> 372
08:32:17.065 -> 401
08:32:17.065 -> 421
08:32:17.065 -> 466
08:32:17.065 -> 478
08:32:17.065 -> 431
08:32:17.065 -> 365
08:32:17.111 -> 349
08:32:17.111 -> 333
08:32:17.111 -> 359
08:32:17.111 -> 373
08:32:17.111 -> 391
08:32:17.111 -> 401
08:32:17.111 -> 375
08:32:17.111 -> 331
08:32:17.111 -> 329
08:32:17.152 -> 352
08:32:17.152 -> 354
08:32:17.152 -> 330
08:32:17.152 -> 317
08:32:17.152 -> 354
08:32:17.152 -> 342
08:32:17.152 -> 347
08:32:17.152 -> 347
08:32:17.187 -> 326
08:32:17.187 -> 312
08:32:17.187 -> 314
08:32:17.187 -> 310
08:32:17.187 -> 245
08:32:17.187 -> 85
08:32:17.187 -> 61
08:32:17.228 -> 150
08:32:17.228 -> 213
08:32:17.228 -> 221
08:32:17.228 -> 211
08:32:17.228 -> 213
08:32:17.228 -> 221
08:32:17.228 -> 233
08:32:17.228 -> 249
08:32:17.268 -> 245
08:32:17.268 -> 223
08:32:17.268 -> 237
08:32:17.268 -> 320
08:32:17.268 -> 412
08:32:17.268 -> 421
08:32:17.268 -> 363
08:32:17.315 -> 325
08:32:17.315 -> 298
08:32:17.315 -> 229
08:32:17.315 -> 222
08:32:17.315 -> 266
08:32:17.315 -> 281
08:32:17.315 -> 224
08:32:17.315 -> 22
08:32:17.315 -> 0
08:32:17.315 -> 0
08:32:17.315 -> 0
08:32:17.355 -> 0
08:32:17.355 -> 0
08:32:17.355 -> 0
08:32:17.355 -> 0
08:32:17.355 -> 0
08:32:17.355 -> 88
08:32:17.355 -> 545
08:32:17.355 -> 640
08:32:17.355 -> 583
08:32:17.355 -> 248
08:32:17.395 -> 0
08:32:17.395 -> 0
08:32:17.395 -> 0
08:32:17.395 -> 0
08:32:17.395 -> 0
08:32:17.395 -> 0
08:32:17.395 -> 0
08:32:17.395 -> 0
08:32:17.395 -> 0
08:32:17.395 -> 0
08:32:17.395 -> 0
08:32:17.395 -> 0
08:32:17.435 -> 0
08:32:17.435 -> 0
08:32:17.435 -> 0
08:32:17.435 -> 0
08:32:17.435 -> 7
08:32:17.435 -> 4
08:32:17.435 -> 0
08:32:17.435 -> 0
08:32:17.435 -> 0
08:32:17.435 -> 20
08:32:17.435 -> 97
08:32:17.435 -> 174
08:32:17.475 -> 156
08:32:17.475 -> 115
08:32:17.475 -> 139
08:32:17.475 -> 212
08:32:17.475 -> 259
08:32:17.475 -> 274
08:32:17.475 -> 335
08:32:17.475 -> 454
08:32:17.515 -> 526
08:32:17.515 -> 534
08:32:17.515 -> 517
08:32:17.515 -> 501
08:32:17.515 -> 483
08:32:17.515 -> 467
08:32:17.515 -> 469
08:32:17.515 -> 471
08:32:17.555 -> 484
08:32:17.555 -> 524
08:32:17.555 -> 569
08:32:17.555 -> 596
08:32:17.555 -> 607
08:32:17.555 -> 625
08:32:17.555 -> 637
08:32:17.597 -> 637
08:32:17.597 -> 638
08:32:17.597 -> 640
08:32:17.597 -> 640
08:32:17.597 -> 641
08:32:17.597 -> 641
08:32:17.597 -> 641
08:32:17.597 -> 641
08:32:17.597 -> 642
08:32:17.639 -> 642
08:32:17.639 -> 643
08:32:17.639 -> 642
08:32:17.639 -> 642
08:32:17.639 -> 641
08:32:17.639 -> 641
08:32:17.639 -> 640
08:32:17.675 -> 641
08:32:17.675 -> 640
08:32:17.675 -> 640
08:32:17.675 -> 640
08:32:17.675 -> 637
08:32:17.675 -> 609
08:32:17.675 -> 579
08:32:17.715 -> 558
08:32:17.715 -> 554
08:32:17.715 -> 530
08:32:17.715 -> 510
08:32:17.715 -> 492
08:32:17.715 -> 481
08:32:17.715 -> 491
08:32:17.715 -> 523
08:32:17.755 -> 551
08:32:17.755 -> 574
08:32:17.755 -> 613
08:32:17.755 -> 639
08:32:17.755 -> 641
08:32:17.755 -> 642
08:32:17.755 -> 643
08:32:17.795 -> 643
08:32:17.795 -> 644
08:32:17.795 -> 644
08:32:17.795 -> 644
08:32:17.795 -> 644
08:32:17.795 -> 644
08:32:17.795 -> 644
08:32:17.795 -> 644
08:32:17.835 -> 643
08:32:17.835 -> 644
08:32:17.835 -> 644
08:32:17.835 -> 643
08:32:17.835 -> 644
08:32:17.835 -> 644
08:32:17.835 -> 644
08:32:17.835 -> 644
08:32:17.875 -> 644
08:32:17.875 -> 644
08:32:17.875 -> 644
08:32:17.875 -> 644
08:32:17.875 -> 644
08:32:17.875 -> 643
08:32:17.875 -> 643
08:32:17.875 -> 643
08:32:17.915 -> 643
08:32:17.915 -> 643
08:32:17.915 -> 642
08:32:17.915 -> 641
08:32:17.915 -> 640
08:32:17.915 -> 625
08:32:17.915 -> 595
08:32:17.955 -> 597
08:32:17.955 -> 587
08:32:17.955 -> 542
08:32:17.955 -> 524
08:32:17.955 -> 498
08:32:17.955 -> 425
08:32:17.955 -> 358
08:32:17.955 -> 336
08:32:17.995 -> 316
08:32:17.995 -> 252
08:32:17.995 -> 205
08:32:17.995 -> 266
08:32:17.995 -> 350
08:32:17.995 -> 373
08:32:17.995 -> 343
08:32:17.995 -> 348
08:32:18.036 -> 381
08:32:18.036 -> 384
08:32:18.036 -> 376
08:32:18.036 -> 403
08:32:18.036 -> 434
08:32:18.036 -> 415
08:32:18.036 -> 355
08:32:18.036 -> 284
08:32:18.083 -> 205
08:32:18.083 -> 128
08:32:18.083 -> 109
08:32:18.083 -> 118
08:32:18.083 -> 112
08:32:18.083 -> 88
08:32:18.083 -> 71
08:32:18.083 -> 71
08:32:18.083 -> 63
08:32:18.129 -> 43
08:32:18.129 -> 36
08:32:18.129 -> 46
08:32:18.129 -> 44
08:32:18.129 -> 28
08:32:18.129 -> 24
08:32:18.129 -> 35
08:32:18.129 -> 33
08:32:18.129 -> 21
08:32:18.129 -> 24
08:32:18.163 -> 38
08:32:18.163 -> 37
08:32:18.163 -> 27
08:32:18.163 -> 33
08:32:18.163 -> 46
08:32:18.163 -> 44
08:32:18.163 -> 36
08:32:18.163 -> 44
08:32:18.203 -> 59
08:32:18.203 -> 57
08:32:18.203 -> 49
08:32:18.203 -> 60
08:32:18.203 -> 75
08:32:18.203 -> 75
08:32:18.203 -> 71
08:32:18.203 -> 82
08:32:18.243 -> 96
08:32:18.243 -> 90
08:32:18.243 -> 87
08:32:18.243 -> 99
08:32:18.243 -> 110
08:32:18.243 -> 102
08:32:18.243 -> 96
08:32:18.283 -> 107
08:32:18.283 -> 113
08:32:18.283 -> 101
08:32:18.283 -> 97
08:32:18.283 -> 107
08:32:18.283 -> 108
08:32:18.283 -> 95
08:32:18.283 -> 87
08:32:18.323 -> 97
08:32:18.323 -> 95
08:32:18.323 -> 79
08:32:18.323 -> 74
08:32:18.323 -> 86
08:32:18.323 -> 86
08:32:18.323 -> 74
08:32:18.323 -> 73
08:32:18.363 -> 88
08:32:18.363 -> 88
08:32:18.363 -> 78
08:32:18.363 -> 82
08:32:18.363 -> 96
08:32:18.363 -> 96
08:32:18.363 -> 87
08:32:18.363 -> 92
08:32:18.403 -> 103
08:32:18.403 -> 100
08:32:18.403 -> 92
08:32:18.403 -> 100
08:32:18.403 -> 114
08:32:18.403 -> 110
08:32:18.403 -> 103
08:32:18.443 -> 111
08:32:18.443 -> 124
08:32:18.443 -> 119
08:32:18.443 -> 113
08:32:18.443 -> 124
08:32:18.443 -> 134
08:32:18.443 -> 129
08:32:18.443 -> 125
08:32:18.483 -> 138
08:32:18.483 -> 146
08:32:18.483 -> 137
08:32:18.483 -> 134
08:32:18.483 -> 146
08:32:18.483 -> 153
08:32:18.483 -> 145
08:32:18.483 -> 144
08:32:18.523 -> 158
08:32:18.523 -> 165
08:32:18.523 -> 157
08:32:18.523 -> 157
08:32:18.523 -> 171
08:32:18.523 -> 175
08:32:18.523 -> 165
08:32:18.523 -> 168
08:32:18.563 -> 182
08:32:18.563 -> 186
08:32:18.563 -> 178
08:32:18.563 -> 181
08:32:18.563 -> 195
08:32:18.563 -> 196
08:32:18.563 -> 187
08:32:18.609 -> 192
08:32:18.609 -> 205
08:32:18.609 -> 205
08:32:18.609 -> 196
08:32:18.609 -> 203
08:32:18.609 -> 218
08:32:18.609 -> 217
08:32:18.609 -> 213
08:32:18.609 -> 221
08:32:18.655 -> 233
08:32:18.655 -> 231
08:32:18.655 -> 228
08:32:18.655 -> 237
08:32:18.655 -> 248
08:32:18.655 -> 243
08:32:18.655 -> 241
08:32:18.655 -> 256
08:32:18.655 -> 266
08:32:18.694 -> 253
08:32:18.694 -> 243
08:32:18.694 -> 248
08:32:18.694 -> 252
08:32:18.694 -> 242
08:32:18.694 -> 240
08:32:18.694 -> 254
08:32:18.734 -> 259
08:32:18.734 -> 248
08:32:18.734 -> 248
08:32:18.734 -> 262
08:32:18.734 -> 266
08:32:18.734 -> 256
08:32:18.734 -> 258
08:32:18.734 -> 272
08:32:18.774 -> 273
08:32:18.774 -> 263
08:32:18.774 -> 272
08:32:18.774 -> 306
08:32:18.774 -> 334
08:32:18.774 -> 348
08:32:18.774 -> 344
08:32:18.774 -> 331
08:32:18.814 -> 306
08:32:18.814 -> 270
08:32:18.814 -> 239
08:32:18.814 -> 246
08:32:18.814 -> 271
08:32:18.814 -> 281
08:32:18.814 -> 291
08:32:18.854 -> 303
08:32:18.854 -> 300
08:32:18.854 -> 293
08:32:18.854 -> 301
08:32:18.854 -> 312
08:32:18.854 -> 307
08:32:18.854 -> 301
08:32:18.854 -> 310
08:32:18.894 -> 320
08:32:18.894 -> 313
08:32:18.894 -> 309
08:32:18.894 -> 320
08:32:18.894 -> 329
08:32:18.894 -> 321
08:32:18.894 -> 319
08:32:18.934 -> 332
08:32:18.934 -> 338
08:32:18.934 -> 330
08:32:18.934 -> 328
08:32:18.934 -> 341
08:32:18.934 -> 346
08:32:18.934 -> 337
08:32:18.934 -> 338
08:32:18.974 -> 352
08:32:18.974 -> 355
08:32:18.974 -> 347
08:32:18.974 -> 349
08:32:18.974 -> 365
08:32:18.974 -> 368
08:32:18.974 -> 361
08:32:18.974 -> 364
08:32:19.014 -> 379
08:32:19.014 -> 380
08:32:19.014 -> 372
08:32:19.014 -> 377
08:32:19.014 -> 389
08:32:19.014 -> 385
08:32:19.014 -> 376
08:32:19.014 -> 381
08:32:19.054 -> 390
08:32:19.054 -> 381
08:32:19.054 -> 367
08:32:19.054 -> 369
08:32:19.054 -> 373
08:32:19.054 -> 360
08:32:19.054 -> 347
08:32:19.090 -> 349
08:32:19.090 -> 352
08:32:19.090 -> 340
08:32:19.090 -> 330
08:32:19.090 -> 337
08:32:19.090 -> 343
08:32:19.090 -> 335
08:32:19.143 -> 330
08:32:19.143 -> 339
08:32:19.143 -> 343
08:32:19.143 -> 334
08:32:19.143 -> 329
08:32:19.143 -> 341
08:32:19.143 -> 345
08:32:19.143 -> 334
08:32:19.143 -> 332
08:32:19.143 -> 344
08:32:19.183 -> 346
08:32:19.183 -> 336
08:32:19.183 -> 336
08:32:19.183 -> 347
08:32:19.183 -> 347
08:32:19.183 -> 337
08:32:19.183 -> 338
08:32:19.183 -> 349
08:32:19.223 -> 348
08:32:19.223 -> 338
08:32:19.223 -> 340
08:32:19.223 -> 351
08:32:19.223 -> 348
08:32:19.223 -> 338
08:32:19.223 -> 342
08:32:19.223 -> 353
08:32:19.263 -> 348
08:32:19.263 -> 338
08:32:19.263 -> 343
08:32:19.263 -> 353
08:32:19.263 -> 346
08:32:19.263 -> 337
08:32:19.263 -> 345
08:32:19.303 -> 353
08:32:19.303 -> 346
08:32:19.303 -> 339
08:32:19.303 -> 347
08:32:19.303 -> 356
08:32:19.303 -> 347
08:32:19.303 -> 340
08:32:19.303 -> 349
08:32:19.343 -> 356
08:32:19.343 -> 346
08:32:19.343 -> 340
08:32:19.343 -> 350
08:32:19.343 -> 355
08:32:19.343 -> 348
08:32:19.343 -> 347
08:32:19.343 -> 357
08:32:19.383 -> 361
08:32:19.383 -> 352
08:32:19.383 -> 351
08:32:19.383 -> 362
08:32:19.383 -> 363
08:32:19.383 -> 355
08:32:19.383 -> 356
08:32:19.383 -> 373
08:32:19.423 -> 373
08:32:19.423 -> 357
08:32:19.423 -> 351
08:32:19.423 -> 356
08:32:19.423 -> 351
08:32:19.423 -> 339
08:32:19.423 -> 341
08:32:19.463 -> 352
08:32:19.463 -> 348
08:32:19.463 -> 338
08:32:19.463 -> 342
08:32:19.463 -> 353
08:32:19.463 -> 347
08:32:19.463 -> 337
08:32:19.463 -> 343
08:32:19.503 -> 352
08:32:19.503 -> 344
08:32:19.503 -> 336
08:32:19.503 -> 353
08:32:19.503 -> 382
08:32:19.503 -> 403
08:32:19.503 -> 421
08:32:19.503 -> 421
08:32:19.543 -> 399
08:32:19.543 -> 366
08:32:19.543 -> 332
08:32:19.543 -> 303
08:32:19.543 -> 308
08:32:19.543 -> 327
08:32:19.543 -> 336
08:32:19.543 -> 348
08:32:19.583 -> 354
08:32:19.583 -> 344
08:32:19.583 -> 342
08:32:19.583 -> 353
08:32:19.583 -> 355
08:32:19.583 -> 346
08:32:19.583 -> 346
08:32:19.629 -> 356
08:32:19.629 -> 356
08:32:19.629 -> 347
08:32:19.629 -> 348
08:32:19.629 -> 360
08:32:19.629 -> 359
08:32:19.629 -> 348
08:32:19.629 -> 352
08:32:19.629 -> 364
08:32:19.677 -> 363
08:32:19.677 -> 353
08:32:19.677 -> 357
08:32:19.677 -> 368
08:32:19.677 -> 363
08:32:19.677 -> 354
08:32:19.677 -> 361
08:32:19.677 -> 373
08:32:19.677 -> 367
08:32:19.727 -> 360
08:32:19.727 -> 368
08:32:19.727 -> 379
08:32:19.727 -> 373
08:32:19.727 -> 367
08:32:19.727 -> 378
08:32:19.727 -> 387
08:32:19.727 -> 381
08:32:19.727 -> 376
08:32:19.727 -> 387
08:32:19.767 -> 393
08:32:19.767 -> 384
08:32:19.767 -> 379
08:32:19.767 -> 389
08:32:19.767 -> 392
08:32:19.767 -> 377
08:32:19.767 -> 369
08:32:19.807 -> 374
08:32:19.807 -> 370
08:32:19.807 -> 353
08:32:19.807 -> 345
08:32:19.807 -> 351
08:32:19.807 -> 347
08:32:19.807 -> 332
08:32:19.807 -> 329
08:32:19.847 -> 338
08:32:19.847 -> 336
08:32:19.847 -> 325
08:32:19.847 -> 326
08:32:19.847 -> 337
08:32:19.847 -> 334
08:32:19.847 -> 324
08:32:19.847 -> 327
08:32:19.887 -> 338
08:32:19.887 -> 334
08:32:19.887 -> 324
08:32:19.887 -> 328
08:32:19.887 -> 338
08:32:19.887 -> 333
08:32:19.887 -> 324
08:32:19.887 -> 330
08:32:19.927 -> 338
08:32:19.927 -> 331
08:32:19.927 -> 323
08:32:19.927 -> 330
08:32:19.927 -> 338
08:32:19.927 -> 330
08:32:19.927 -> 323
08:32:19.927 -> 333
08:32:19.967 -> 339
08:32:19.967 -> 331
08:32:19.967 -> 324
08:32:19.967 -> 333
08:32:19.967 -> 338
08:32:19.967 -> 327
08:32:19.967 -> 324
08:32:20.007 -> 334
08:32:20.007 -> 337
08:32:20.007 -> 325
08:32:20.007 -> 323
08:32:20.007 -> 334
08:32:20.007 -> 335
08:32:20.007 -> 323
08:32:20.007 -> 323
08:32:20.049 -> 335
08:32:20.049 -> 334
08:32:20.049 -> 323
08:32:20.049 -> 324
08:32:20.049 -> 335
08:32:20.049 -> 333
08:32:20.049 -> 322
08:32:20.089 -> 323
08:32:20.089 -> 334
08:32:20.089 -> 331
08:32:20.089 -> 320
08:32:20.089 -> 324
08:32:20.089 -> 334
08:32:20.089 -> 329
08:32:20.089 -> 320
08:32:20.144 -> 325
08:32:20.144 -> 336
08:32:20.144 -> 330
08:32:20.144 -> 320
08:32:20.144 -> 327
08:32:20.144 -> 338
08:32:20.144 -> 333
08:32:20.144 -> 326
08:32:20.144 -> 332
08:32:20.144 -> 343
08:32:20.144 -> 336
08:32:20.190 -> 327
08:32:20.190 -> 336
08:32:20.190 -> 344
08:32:20.190 -> 338
08:32:20.190 -> 338
08:32:20.190 -> 349
08:32:20.190 -> 349
08:32:20.190 -> 332
08:32:20.190 -> 323
08:32:20.231 -> 330
08:32:20.231 -> 331
08:32:20.231 -> 318
08:32:20.231 -> 317
08:32:20.231 -> 329
08:32:20.231 -> 330
08:32:20.231 -> 319
08:32:20.231 -> 318
08:32:20.271 -> 330
08:32:20.271 -> 328
08:32:20.271 -> 316
08:32:20.271 -> 317
08:32:20.271 -> 326
08:32:20.271 -> 325
08:32:20.271 -> 323
08:32:20.308 -> 345
08:32:20.308 -> 384
08:32:20.308 -> 408
08:32:20.308 -> 393
08:32:20.308 -> 370
08:32:20.308 -> 358
08:32:20.308 -> 325
08:32:20.350 -> 276
08:32:20.350 -> 280
08:32:20.350 -> 314
08:32:20.350 -> 319
08:32:20.350 -> 315
08:32:20.350 -> 323
08:32:20.350 -> 331
08:32:20.350 -> 321
08:32:20.350 -> 314
08:32:20.397 -> 322
08:32:20.397 -> 330
08:32:20.397 -> 321
08:32:20.397 -> 316
08:32:20.397 -> 326
08:32:20.397 -> 332
08:32:20.397 -> 322
08:32:20.397 -> 318
08:32:20.444 -> 329
08:32:20.444 -> 334
08:32:20.444 -> 324
08:32:20.444 -> 323
08:32:20.444 -> 334
08:32:20.444 -> 336
08:32:20.444 -> 326
08:32:20.444 -> 326
08:32:20.444 -> 338
08:32:20.444 -> 339
08:32:20.491 -> 328
08:32:20.491 -> 330
08:32:20.491 -> 343
08:32:20.491 -> 343
08:32:20.491 -> 336
08:32:20.491 -> 340
08:32:20.491 -> 353
08:32:20.491 -> 353
08:32:20.529 -> 344
08:32:20.529 -> 350
08:32:20.529 -> 363
08:32:20.529 -> 360
08:32:20.529 -> 353
08:32:20.529 -> 359
08:32:20.529 -> 370
08:32:20.529 -> 363
08:32:20.569 -> 353
08:32:20.569 -> 359
08:32:20.569 -> 365
08:32:20.569 -> 353
08:32:20.569 -> 341
08:32:20.569 -> 343
08:32:20.569 -> 344
08:32:20.611 -> 329
08:32:20.611 -> 318
08:32:20.611 -> 323
08:32:20.611 -> 323
08:32:20.611 -> 309
08:32:20.611 -> 304
08:32:20.611 -> 313
08:32:20.611 -> 317
08:32:20.611 -> 307
08:32:20.656 -> 305
08:32:20.656 -> 315
08:32:20.656 -> 317
08:32:20.656 -> 306
08:32:20.656 -> 304
08:32:20.656 -> 316
08:32:20.656 -> 316
08:32:20.656 -> 305
08:32:20.656 -> 306
08:32:20.698 -> 317
08:32:20.698 -> 316
08:32:20.698 -> 304
08:32:20.698 -> 306
08:32:20.698 -> 318
08:32:20.698 -> 315
08:32:20.698 -> 305
08:32:20.698 -> 308
08:32:20.738 -> 320
08:32:20.738 -> 315
08:32:20.738 -> 304
08:32:20.738 -> 310
08:32:20.738 -> 321
08:32:20.738 -> 315
08:32:20.738 -> 306
08:32:20.778 -> 311
08:32:20.778 -> 318
08:32:20.778 -> 310
08:32:20.778 -> 303
08:32:20.778 -> 311
08:32:20.778 -> 319
08:32:20.778 -> 310
08:32:20.778 -> 303
08:32:20.818 -> 313
08:32:20.818 -> 319
08:32:20.818 -> 310
08:32:20.818 -> 305
08:32:20.818 -> 315
08:32:20.818 -> 320
08:32:20.818 -> 310
08:32:20.859 -> 305
08:32:20.859 -> 317
08:32:20.859 -> 320
08:32:20.859 -> 310
08:32:20.859 -> 307
08:32:20.859 -> 319
08:32:20.859 -> 321
08:32:20.859 -> 310
08:32:20.899 -> 309
08:32:20.899 -> 322
08:32:20.899 -> 322
08:32:20.899 -> 310
08:32:20.899 -> 311
08:32:20.899 -> 322
08:32:20.899 -> 320
08:32:20.899 -> 310
08:32:20.938 -> 312
08:32:20.938 -> 324
08:32:20.938 -> 320
08:32:20.938 -> 310
08:32:20.938 -> 314
08:32:20.938 -> 324
08:32:20.938 -> 318
08:32:20.978 -> 310
08:32:20.978 -> 314
08:32:20.978 -> 324
08:32:20.978 -> 318
08:32:20.978 -> 309
08:32:20.978 -> 316
08:32:20.978 -> 326
08:32:20.978 -> 317
08:32:21.018 -> 309
08:32:21.018 -> 318
08:32:21.018 -> 326
08:32:21.018 -> 318
08:32:21.018 -> 310
08:32:21.018 -> 319
08:32:21.018 -> 326
08:32:21.018 -> 317
08:32:21.058 -> 311
08:32:21.058 -> 322
08:32:21.058 -> 325
08:32:21.058 -> 315
08:32:21.058 -> 314
08:32:21.058 -> 327
08:32:21.058 -> 330
08:32:21.058 -> 318
08:32:21.098 -> 319
08:32:21.098 -> 332
08:32:21.098 -> 332
08:32:21.098 -> 321
08:32:21.098 -> 323
08:32:21.098 -> 337
08:32:21.098 -> 340
08:32:21.138 -> 330
08:32:21.138 -> 328
08:32:21.138 -> 334
08:32:21.138 -> 325
08:32:21.138 -> 312
08:32:21.138 -> 314
08:32:21.138 -> 324
08:32:21.138 -> 320
08:32:21.178 -> 310
08:32:21.178 -> 315
08:32:21.178 -> 324
08:32:21.178 -> 319
08:32:21.178 -> 309
08:32:21.178 -> 316
08:32:21.178 -> 325
08:32:21.178 -> 316
08:32:21.218 -> 307
08:32:21.218 -> 318
08:32:21.218 -> 336
08:32:21.218 -> 351
08:32:21.218 -> 379
08:32:21.218 -> 415
08:32:21.218 -> 409
08:32:21.218 -> 370
08:32:21.258 -> 338
08:32:21.258 -> 315
08:32:21.258 -> 281
08:32:21.258 -> 278
08:32:21.258 -> 299
08:32:21.258 -> 319
08:32:21.258 -> 325
08:32:21.298 -> 315
08:32:21.298 -> 311
08:32:21.298 -> 323
08:32:21.298 -> 325
08:32:21.298 -> 315
08:32:21.298 -> 315
08:32:21.298 -> 326
08:32:21.298 -> 326
08:32:21.343 -> 316
08:32:21.343 -> 318
08:32:21.343 -> 330
08:32:21.343 -> 328
08:32:21.343 -> 318
08:32:21.343 -> 323
08:32:21.343 -> 336
08:32:21.343 -> 333
08:32:21.384 -> 324
08:32:21.384 -> 327
08:32:21.384 -> 339
08:32:21.384 -> 335
08:32:21.384 -> 326
08:32:21.384 -> 332
08:32:21.384 -> 343
08:32:21.384 -> 336
08:32:21.424 -> 329
08:32:21.424 -> 339
08:32:21.424 -> 350
08:32:21.424 -> 345
08:32:21.424 -> 341
08:32:21.424 -> 350
08:32:21.424 -> 360
08:32:21.424 -> 353
08:32:21.464 -> 349
08:32:21.464 -> 360
08:32:21.464 -> 368
08:32:21.464 -> 360
08:32:21.464 -> 356
08:32:21.464 -> 367
08:32:21.464 -> 371
08:32:21.464 -> 360
08:32:21.504 -> 354
08:32:21.504 -> 362
08:32:21.504 -> 360
08:32:21.504 -> 343
08:32:21.504 -> 335
08:32:21.504 -> 340
08:32:21.504 -> 334
08:32:21.504 -> 317
08:32:21.549 -> 312
08:32:21.549 -> 321
08:32:21.549 -> 317
08:32:21.549 -> 304
08:32:21.549 -> 305
08:32:21.549 -> 316
08:32:21.549 -> 312
08:32:21.549 -> 301
08:32:21.592 -> 304
08:32:21.592 -> 314
08:32:21.592 -> 309
08:32:21.592 -> 300
08:32:21.592 -> 305
08:32:21.592 -> 315
08:32:21.592 -> 308
08:32:21.592 -> 300
08:32:21.639 -> 306
08:32:21.639 -> 315
08:32:21.639 -> 308
08:32:21.639 -> 300
08:32:21.639 -> 307
08:32:21.639 -> 315
08:32:21.639 -> 307
08:32:21.639 -> 300
08:32:21.639 -> 309
08:32:21.678 -> 316
08:32:21.678 -> 306
08:32:21.678 -> 301
08:32:21.678 -> 310
08:32:21.678 -> 316
08:32:21.678 -> 305
08:32:21.678 -> 302
08:32:21.678 -> 312
08:32:21.725 -> 315
08:32:21.725 -> 305
08:32:21.725 -> 302
08:32:21.725 -> 313
08:32:21.725 -> 315
08:32:21.725 -> 305
08:32:21.725 -> 304
08:32:21.725 -> 315
08:32:21.765 -> 315
08:32:21.765 -> 304
08:32:21.765 -> 305
08:32:21.765 -> 315
08:32:21.765 -> 313
08:32:21.765 -> 303
08:32:21.765 -> 305
08:32:21.765 -> 317
08:32:21.805 -> 313
08:32:21.805 -> 303
08:32:21.805 -> 307
08:32:21.805 -> 317
08:32:21.805 -> 312
08:32:21.805 -> 304
08:32:21.805 -> 309
08:32:21.805 -> 318
08:32:21.845 -> 312
08:32:21.845 -> 303
08:32:21.845 -> 311
08:32:21.845 -> 319
08:32:21.845 -> 311
08:32:21.845 -> 304
08:32:21.845 -> 313
08:32:21.845 -> 320
08:32:21.885 -> 310
08:32:21.885 -> 304
08:32:21.885 -> 313
08:32:21.885 -> 319
08:32:21.885 -> 309
08:32:21.885 -> 304
08:32:21.885 -> 314
08:32:21.925 -> 319
08:32:21.925 -> 309
08:32:21.925 -> 306
08:32:21.925 -> 317
08:32:21.925 -> 319
08:32:21.925 -> 309
08:32:21.925 -> 307
08:32:21.925 -> 319
08:32:21.965 -> 320
08:32:21.965 -> 309
08:32:21.965 -> 309
08:32:21.965 -> 320
08:32:21.965 -> 320
08:32:21.965 -> 309
08:32:21.965 -> 312
08:32:21.965 -> 326
08:32:22.005 -> 324
08:32:22.005 -> 314
08:32:22.005 -> 317
08:32:22.005 -> 330
08:32:22.005 -> 326
08:32:22.005 -> 316
08:32:22.005 -> 322
08:32:22.005 -> 335
08:32:22.050 -> 333
08:32:22.050 -> 327
08:32:22.050 -> 331
08:32:22.050 -> 334
08:32:22.050 -> 322
08:32:22.050 -> 310
08:32:22.050 -> 315
08:32:22.050 -> 320
08:32:22.090 -> 312
08:32:22.090 -> 306
08:32:22.090 -> 315
08:32:22.090 -> 321
08:32:22.090 -> 312
08:32:22.090 -> 306
08:32:22.090 -> 316
08:32:22.090 -> 320
08:32:22.135 -> 309
08:32:22.135 -> 305
08:32:22.135 -> 316
08:32:22.135 -> 327
08:32:22.135 -> 333
08:32:22.135 -> 360
08:32:22.135 -> 407
08:32:22.135 -> 419
08:32:22.171 -> 382
08:32:22.171 -> 351
08:32:22.171 -> 335
08:32:22.171 -> 292
08:32:22.171 -> 262
08:32:22.171 -> 286
08:32:22.171 -> 316
08:32:22.212 -> 320
08:32:22.212 -> 310
08:32:22.212 -> 313
08:32:22.212 -> 323
08:32:22.212 -> 319
08:32:22.212 -> 311
08:32:22.212 -> 316
08:32:22.212 -> 326
08:32:22.252 -> 320
08:32:22.252 -> 312
08:32:22.252 -> 320
08:32:22.252 -> 330
08:32:22.252 -> 323
08:32:22.252 -> 316
08:32:22.252 -> 324
08:32:22.252 -> 334
08:32:22.292 -> 327
08:32:22.292 -> 321
08:32:22.292 -> 329
08:32:22.292 -> 336
08:32:22.292 -> 328
08:32:22.292 -> 323
08:32:22.292 -> 334
08:32:22.292 -> 340
08:32:22.332 -> 332
08:32:22.332 -> 329
08:32:22.332 -> 342
08:32:22.332 -> 347
08:32:22.332 -> 340
08:32:22.332 -> 339
08:32:22.332 -> 353
08:32:22.332 -> 357
08:32:22.372 -> 349
08:32:22.372 -> 351
08:32:22.372 -> 365
08:32:22.372 -> 368
08:32:22.372 -> 358
08:32:22.372 -> 358
08:32:22.372 -> 371
08:32:22.412 -> 370
08:32:22.412 -> 359
08:32:22.412 -> 358
08:32:22.412 -> 367
08:32:22.412 -> 358
08:32:22.412 -> 343
08:32:22.412 -> 339
08:32:22.412 -> 344
08:32:22.452 -> 333
08:32:22.452 -> 317
08:32:22.452 -> 317
08:32:22.452 -> 324
08:32:22.452 -> 315
08:32:22.452 -> 304
08:32:22.452 -> 309
08:32:22.452 -> 317
08:32:22.492 -> 308
08:32:22.492 -> 301
08:32:22.492 -> 310
08:32:22.492 -> 317
08:32:22.492 -> 307
08:32:22.492 -> 300
08:32:22.492 -> 308
08:32:22.532 -> 315
08:32:22.532 -> 305
08:32:22.532 -> 299
08:32:22.532 -> 310
08:32:22.532 -> 315
08:32:22.532 -> 305
08:32:22.532 -> 302
08:32:22.532 -> 313
08:32:22.572 -> 317
08:32:22.572 -> 306
08:32:22.572 -> 303
08:32:22.572 -> 314
08:32:22.572 -> 317
08:32:22.572 -> 307
08:32:22.572 -> 306
08:32:22.612 -> 317
08:32:22.612 -> 318
08:32:22.612 -> 308
08:32:22.612 -> 309
08:32:22.612 -> 320
08:32:22.612 -> 318
08:32:22.612 -> 308
08:32:22.612 -> 308
08:32:22.652 -> 319
08:32:22.652 -> 316
08:32:22.652 -> 307
08:32:22.652 -> 311
08:32:22.652 -> 321
08:32:22.652 -> 316
08:32:22.652 -> 307
08:32:22.652 -> 313
08:32:22.692 -> 322
08:32:22.692 -> 315
08:32:22.692 -> 307
08:32:22.692 -> 314
08:32:22.692 -> 324
08:32:22.692 -> 315
08:32:22.692 -> 309
08:32:22.732 -> 317
08:32:22.732 -> 323
08:32:22.732 -> 314
08:32:22.732 -> 308
08:32:22.732 -> 318
08:32:22.732 -> 325
08:32:22.732 -> 314
08:32:22.732 -> 310
08:32:22.772 -> 320
08:32:22.772 -> 325
08:32:22.772 -> 315
08:32:22.772 -> 311
08:32:22.772 -> 321
08:32:22.772 -> 323
08:32:22.772 -> 312
08:32:22.772 -> 324
08:32:22.812 -> 323
08:32:22.812 -> 312
08:32:22.812 -> 313
08:32:22.812 -> 325
08:32:22.812 -> 324
08:32:22.812 -> 313
08:32:22.812 -> 314
08:32:22.812 -> 327
08:32:22.852 -> 322
08:32:22.852 -> 313
08:32:22.852 -> 317
08:32:22.852 -> 327
08:32:22.852 -> 323
08:32:22.852 -> 313
08:32:22.852 -> 318
08:32:22.852 -> 328
08:32:22.892 -> 322
08:32:22.892 -> 313
08:32:22.892 -> 322
08:32:22.892 -> 333
08:32:22.892 -> 325
08:32:22.892 -> 320
08:32:22.892 -> 329
08:32:22.932 -> 336
08:32:22.932 -> 327
08:32:22.932 -> 322
08:32:22.932 -> 333
08:32:22.932 -> 342
08:32:22.932 -> 336
08:32:22.932 -> 329
08:32:22.932 -> 335
08:32:22.972 -> 335
08:32:22.972 -> 319
08:32:22.972 -> 312
08:32:22.972 -> 322
08:32:22.972 -> 324
08:32:22.972 -> 313
08:32:22.972 -> 312
08:32:22.972 -> 323
08:32:23.012 -> 325
08:32:23.012 -> 313
08:32:23.012 -> 312
08:32:23.012 -> 324
08:32:23.012 -> 323
08:32:23.012 -> 311
08:32:23.012 -> 311
08:32:23.052 -> 327
08:32:23.052 -> 339
08:32:23.052 -> 354
08:32:23.052 -> 387
08:32:23.052 -> 412
08:32:23.052 -> 385
08:32:23.052 -> 344
08:32:23.092 -> 325
08:32:23.092 -> 304
08:32:23.092 -> 275
08:32:23.092 -> 282
08:32:23.092 -> 311
08:32:23.092 -> 327
08:32:23.092 -> 320
08:32:23.092 -> 313
08:32:23.132 -> 322
08:32:23.132 -> 322
08:32:23.132 -> 316
08:32:23.132 -> 323
08:32:23.132 -> 331
08:32:23.132 -> 324
08:32:23.132 -> 318
08:32:23.132 -> 327
08:32:23.172 -> 333
08:32:23.172 -> 326
08:32:23.172 -> 321
08:32:23.172 -> 332
08:32:23.172 -> 336
08:32:23.172 -> 327
08:32:23.172 -> 324
08:32:23.172 -> 335
08:32:23.212 -> 339
08:32:23.212 -> 328
08:32:23.212 -> 328
08:32:23.212 -> 341
08:32:23.212 -> 343
08:32:23.212 -> 333
08:32:23.212 -> 336
08:32:23.252 -> 352
08:32:23.252 -> 355
08:32:23.252 -> 343
08:32:23.252 -> 340
08:32:23.252 -> 353
08:32:23.252 -> 353
08:32:23.252 -> 345
08:32:23.252 -> 350
08:32:23.292 -> 363
08:32:23.292 -> 361
08:32:23.292 -> 351
08:32:23.292 -> 358
08:32:23.292 -> 368
08:32:23.292 -> 362
08:32:23.292 -> 352
08:32:23.292 -> 356
08:32:23.332 -> 363
08:32:23.332 -> 350
08:32:23.332 -> 338
08:32:23.332 -> 340
08:32:23.332 -> 340
08:32:23.332 -> 324
08:32:23.332 -> 313
08:32:23.332 -> 318
08:32:23.372 -> 321
08:32:23.372 -> 309
08:32:23.372 -> 305
08:32:23.372 -> 314
08:32:23.372 -> 312
08:32:23.372 -> 300
08:32:23.372 -> 298
08:32:23.412 -> 311
08:32:23.412 -> 313
08:32:23.412 -> 301
08:32:23.412 -> 300
08:32:23.412 -> 313
08:32:23.412 -> 314
08:32:23.412 -> 303
08:32:23.412 -> 303
08:32:23.452 -> 315
08:32:23.452 -> 314
08:32:23.452 -> 303
08:32:23.452 -> 315
08:32:23.452 -> 313
08:32:23.452 -> 302
08:32:23.452 -> 307
08:32:23.452 -> 320
08:32:23.492 -> 314
08:32:23.492 -> 303
08:32:23.492 -> 306
08:32:23.492 -> 318
08:32:23.492 -> 311
08:32:23.492 -> 303
08:32:23.492 -> 309
08:32:23.492 -> 320
08:32:23.532 -> 316
08:32:23.532 -> 311
08:32:23.532 -> 311
08:32:23.532 -> 313
08:32:23.532 -> 307
08:32:23.532 -> 302
08:32:23.532 -> 311
08:32:23.572 -> 319
08:32:23.572 -> 311
08:32:23.572 -> 306
08:32:23.572 -> 314
08:32:23.572 -> 319
08:32:23.572 -> 309
08:32:23.572 -> 306
08:32:23.612 -> 315
08:32:23.612 -> 318
08:32:23.612 -> 306
08:32:23.612 -> 304
08:32:23.612 -> 318
08:32:23.612 -> 323
08:32:23.612 -> 314
08:32:23.612 -> 313
08:32:23.652 -> 327
08:32:23.652 -> 329
08:32:23.652 -> 321
08:32:23.652 -> 316
08:32:23.652 -> 324
08:32:23.652 -> 327
08:32:23.652 -> 323
08:32:23.652 -> 326
08:32:23.692 -> 333
08:32:23.692 -> 325
08:32:23.692 -> 309
08:32:23.692 -> 311
08:32:23.692 -> 321
08:32:23.692 -> 314
08:32:23.692 -> 304
08:32:23.692 -> 312
08:32:23.732 -> 321
08:32:23.732 -> 315
08:32:23.732 -> 307
08:32:23.732 -> 313
08:32:23.732 -> 321
08:32:23.732 -> 313
08:32:23.732 -> 305
08:32:23.772 -> 315
08:32:23.772 -> 324
08:32:23.772 -> 318
08:32:23.772 -> 326
08:32:23.772 -> 353
08:32:23.772 -> 381
08:32:23.772 -> 348
08:32:23.772 -> 336
08:32:23.812 -> 319
08:32:23.812 -> 278
08:32:23.812 -> 256
08:32:23.812 -> 281
08:32:23.812 -> 312
08:32:23.812 -> 311
08:32:23.812 -> 308
08:32:23.812 -> 319
08:32:23.852 -> 324
08:32:23.852 -> 316
08:32:23.852 -> 317
08:32:23.852 -> 330
08:32:23.852 -> 330
08:32:23.852 -> 322
08:32:23.852 -> 319
08:32:23.852 -> 326
08:32:23.892 -> 323
08:32:23.892 -> 315
08:32:23.892 -> 322
08:32:23.892 -> 335
08:32:23.892 -> 331
08:32:23.892 -> 319
08:32:23.892 -> 326
08:32:23.932 -> 340
08:32:23.932 -> 332
08:32:23.932 -> 324
08:32:23.932 -> 330
08:32:23.932 -> 343
08:32:23.932 -> 337
08:32:23.932 -> 330
08:32:23.932 -> 338
08:32:23.972 -> 347
08:32:23.972 -> 343
08:32:23.972 -> 342
08:32:23.972 -> 352
08:32:23.972 -> 350
08:32:23.972 -> 342
08:32:23.972 -> 342
08:32:23.972 -> 356
08:32:24.012 -> 363
08:32:24.012 -> 351
08:32:24.012 -> 347
08:32:24.012 -> 362
08:32:24.012 -> 365
08:32:24.012 -> 354
08:32:24.012 -> 350
08:32:24.053 -> 360
08:32:24.053 -> 358
08:32:24.053 -> 343
08:32:24.053 -> 336
08:32:24.053 -> 344
08:32:24.053 -> 338
08:32:24.053 -> 312
08:32:24.053 -> 308
08:32:24.093 -> 317
08:32:24.093 -> 314
08:32:24.093 -> 302
08:32:24.093 -> 302
08:32:24.093 -> 313
08:32:24.093 -> 310
08:32:24.093 -> 299
08:32:24.093 -> 302
08:32:24.132 -> 307
08:32:24.132 -> 294
08:32:24.132 -> 302
08:32:24.132 -> 315
08:32:24.132 -> 308
08:32:24.132 -> 303
08:32:24.132 -> 311
08:32:24.172 -> 314
08:32:24.172 -> 303
08:32:24.172 -> 300
08:32:24.172 -> 309
08:32:24.172 -> 318
08:32:24.172 -> 308
08:32:24.172 -> 302
08:32:24.172 -> 314
08:32:24.212 -> 320
08:32:24.212 -> 310
08:32:24.212 -> 306
08:32:24.212 -> 318
08:32:24.212 -> 318
08:32:24.212 -> 309
08:32:24.212 -> 303
08:32:24.212 -> 306
08:32:24.252 -> 309
08:32:24.252 -> 301
08:32:24.252 -> 303
08:32:24.252 -> 312
08:32:24.252 -> 315
08:32:24.252 -> 304
08:32:24.252 -> 304
08:32:24.292 -> 315
08:32:24.292 -> 314
08:32:24.292 -> 304
08:32:24.292 -> 310
08:32:24.292 -> 324
08:32:24.292 -> 309
08:32:24.292 -> 297
08:32:24.292 -> 304
08:32:24.332 -> 320
08:32:24.332 -> 321
08:32:24.332 -> 310
08:32:24.332 -> 309
08:32:24.332 -> 315
08:32:24.332 -> 305
08:32:24.332 -> 297
08:32:24.332 -> 302
08:32:24.372 -> 311
08:32:24.372 -> 303
08:32:24.372 -> 295
08:32:24.372 -> 304
08:32:24.372 -> 314
08:32:24.372 -> 299
08:32:24.372 -> 291
08:32:24.372 -> 300
08:32:24.412 -> 304
08:32:24.412 -> 297
08:32:24.412 -> 293
08:32:24.412 -> 304
08:32:24.412 -> 310
08:32:24.412 -> 304
08:32:24.412 -> 312
08:32:24.452 -> 347
08:32:24.452 -> 368
08:32:24.452 -> 354
08:32:24.452 -> 323
08:32:24.452 -> 304
08:32:24.452 -> 266
08:32:24.452 -> 259
08:32:24.452 -> 280
08:32:24.492 -> 299
08:32:24.492 -> 299
08:32:24.492 -> 303
08:32:24.492 -> 314
08:32:24.492 -> 316
08:32:24.492 -> 309
08:32:24.492 -> 316
08:32:24.492 -> 326
08:32:24.532 -> 322
08:32:24.532 -> 316
08:32:24.532 -> 318
08:32:24.532 -> 320
08:32:24.532 -> 318
08:32:24.532 -> 316
08:32:24.532 -> 322
08:32:24.572 -> 334
08:32:24.572 -> 328
08:32:24.572 -> 322
08:32:24.572 -> 330
08:32:24.572 -> 339
08:32:24.572 -> 332
08:32:24.572 -> 327
08:32:24.572 -> 335
08:32:24.612 -> 338
08:32:24.612 -> 327
08:32:24.612 -> 326
08:32:24.612 -> 340
08:32:24.612 -> 345
08:32:24.612 -> 333
08:32:24.612 -> 330
08:32:24.652 -> 343
08:32:24.652 -> 349
08:32:24.652 -> 343
08:32:24.652 -> 340
08:32:24.652 -> 353
08:32:24.652 -> 361
08:32:24.652 -> 340
08:32:24.652 -> 339
08:32:24.692 -> 355
08:32:24.692 -> 353
08:32:24.692 -> 339
08:32:24.692 -> 334
08:32:24.692 -> 348
08:32:24.692 -> 344
08:32:24.692 -> 327
08:32:24.692 -> 324
08:32:24.732 -> 329
08:32:24.732 -> 323
08:32:24.732 -> 313
08:32:24.732 -> 306
08:32:24.732 -> 306
08:32:24.732 -> 300
08:32:24.732 -> 293
08:32:24.772 -> 296
08:32:24.772 -> 305
08:32:24.772 -> 299
08:32:24.772 -> 293
08:32:24.772 -> 302
08:32:24.772 -> 311
08:32:24.772 -> 297
08:32:24.772 -> 307
08:32:24.812 -> 306
08:32:24.812 -> 296
08:32:24.812 -> 294
08:32:24.812 -> 306
08:32:24.812 -> 315
08:32:24.812 -> 309
08:32:24.812 -> 308
08:32:24.812 -> 319
08:32:24.852 -> 325
08:32:24.852 -> 311
08:32:24.852 -> 315
08:32:24.852 -> 320
08:32:24.852 -> 314
08:32:24.852 -> 306
08:32:24.852 -> 307
08:32:24.852 -> 322
08:32:24.892 -> 322
08:32:24.892 -> 306
08:32:24.892 -> 303
08:32:24.892 -> 313
08:32:24.892 -> 318
08:32:24.892 -> 311
08:32:24.892 -> 307
08:32:24.892 -> 322
08:32:24.932 -> 320
08:32:24.932 -> 307
08:32:24.932 -> 311
08:32:24.932 -> 323
08:32:24.932 -> 320
08:32:24.932 -> 311
08:32:24.932 -> 315
08:32:24.971 -> 325
08:32:24.971 -> 320
08:32:24.971 -> 314
08:32:24.971 -> 321
08:32:24.971 -> 329
08:32:24.971 -> 317
08:32:24.971 -> 296
08:32:24.971 -> 304
08:32:25.011 -> 310
08:32:25.011 -> 302
08:32:25.011 -> 302
08:32:25.011 -> 307
08:32:25.011 -> 319
08:32:25.011 -> 310
08:32:25.011 -> 300
08:32:25.011 -> 310
08:32:25.051 -> 316
08:32:25.051 -> 310
08:32:25.051 -> 299
08:32:25.051 -> 307
08:32:25.051 -> 309
08:32:25.051 -> 302
08:32:25.051 -> 311
08:32:25.092 -> 345
08:32:25.092 -> 377
08:32:25.092 -> 366
08:32:25.092 -> 340
08:32:25.092 -> 335
08:32:25.092 -> 324
08:32:25.092 -> 291
08:32:25.092 -> 270
08:32:25.132 -> 307
08:32:25.132 -> 311
08:32:25.132 -> 313
08:32:25.132 -> 326
08:32:25.132 -> 327
08:32:25.132 -> 312
08:32:25.132 -> 316
08:32:25.171 -> 328
08:32:25.171 -> 327
08:32:25.171 -> 319
08:32:25.171 -> 324
08:32:25.171 -> 338
08:32:25.171 -> 325
08:32:25.171 -> 306
08:32:25.171 -> 319
08:32:25.212 -> 333
08:32:25.212 -> 321
08:32:25.212 -> 307
08:32:25.212 -> 318
08:32:25.212 -> 330
08:32:25.212 -> 323
08:32:25.212 -> 317
08:32:25.212 -> 327
08:32:25.251 -> 334
08:32:25.251 -> 329
08:32:25.251 -> 327
08:32:25.251 -> 335
08:32:25.251 -> 334
08:32:25.251 -> 322
08:32:25.251 -> 322
08:32:25.291 -> 344
08:32:25.291 -> 354
08:32:25.291 -> 344
08:32:25.291 -> 341
08:32:25.291 -> 352
08:32:25.291 -> 355
08:32:25.291 -> 349
08:32:25.291 -> 353
08:32:25.331 -> 370
08:32:25.331 -> 369
08:32:25.331 -> 358
08:32:25.331 -> 350
08:32:25.331 -> 354
08:32:25.331 -> 350
08:32:25.331 -> 336
08:32:25.331 -> 334
08:32:25.371 -> 340
08:32:25.371 -> 331
08:32:25.371 -> 317
08:32:25.371 -> 315
08:32:25.371 -> 326
08:32:25.371 -> 313
08:32:25.371 -> 301
08:32:25.371 -> 306
08:32:25.411 -> 322
08:32:25.411 -> 316
08:32:25.411 -> 299
08:32:25.411 -> 307
08:32:25.411 -> 318
08:32:25.411 -> 310
08:32:25.411 -> 302
08:32:25.411 -> 313
08:32:25.451 -> 324
08:32:25.451 -> 316
08:32:25.451 -> 315
08:32:25.451 -> 324
08:32:25.451 -> 320
08:32:25.451 -> 318
08:32:25.451 -> 319
08:32:25.491 -> 321
08:32:25.491 -> 312
08:32:25.491 -> 314
08:32:25.491 -> 323
08:32:25.491 -> 327
08:32:25.491 -> 319
08:32:25.491 -> 314
08:32:25.491 -> 326
08:32:25.531 -> 329
08:32:25.531 -> 318
08:32:25.531 -> 318
08:32:25.531 -> 330
08:32:25.531 -> 323
08:32:25.531 -> 317
08:32:25.531 -> 325
08:32:25.531 -> 343
08:32:25.571 -> 343
08:32:25.571 -> 332
08:32:25.571 -> 337
08:32:25.571 -> 346
08:32:25.571 -> 342
08:32:25.571 -> 337
08:32:25.571 -> 349
08:32:25.611 -> 361
08:32:25.611 -> 349
08:32:25.611 -> 337
08:32:25.611 -> 346
08:32:25.611 -> 344
08:32:25.611 -> 331
08:32:25.611 -> 325
08:32:25.611 -> 335
08:32:25.651 -> 344
08:32:25.651 -> 335
08:32:25.651 -> 327
08:32:25.651 -> 339
08:32:25.651 -> 347
08:32:25.651 -> 335
08:32:25.651 -> 326
08:32:25.691 -> 338
08:32:25.691 -> 346
08:32:25.691 -> 327
08:32:25.691 -> 317
08:32:25.691 -> 334
08:32:25.691 -> 351
08:32:25.691 -> 362
08:32:25.691 -> 374
08:32:25.731 -> 378
08:32:25.731 -> 361
08:32:25.731 -> 332
08:32:25.731 -> 313
08:32:25.731 -> 296
08:32:25.731 -> 289
08:32:25.731 -> 300
08:32:25.731 -> 324
08:32:25.771 -> 337
08:32:25.771 -> 327
08:32:25.771 -> 315
08:32:25.771 -> 323
08:32:25.771 -> 338
08:32:25.771 -> 321
08:32:25.771 -> 327
08:32:25.771 -> 338
08:32:25.811 -> 330
08:32:25.811 -> 318
08:32:25.811 -> 325
08:32:25.811 -> 335
08:32:25.811 -> 330
08:32:25.811 -> 325
08:32:25.811 -> 331
08:32:25.851 -> 342
08:32:25.851 -> 326
08:32:25.851 -> 318
08:32:25.851 -> 334
08:32:25.851 -> 346
08:32:25.851 -> 335
08:32:25.851 -> 332
08:32:25.851 -> 345
08:32:25.891 -> 351
08:32:25.891 -> 341
08:32:25.891 -> 337
08:32:25.891 -> 350
08:32:25.891 -> 357
08:32:25.891 -> 351
08:32:25.891 -> 348
08:32:25.891 -> 357
08:32:25.931 -> 360
08:32:25.931 -> 353
08:32:25.931 -> 355
08:32:25.931 -> 371
08:32:25.931 -> 364
08:32:25.931 -> 345
08:32:25.931 -> 346
08:32:25.971 -> 363
08:32:25.971 -> 364
08:32:25.971 -> 349
08:32:25.971 -> 343
08:32:25.971 -> 350
08:32:25.971 -> 340
08:32:25.971 -> 324
08:32:25.971 -> 323
08:32:26.011 -> 328
08:32:26.011 -> 321
08:32:26.011 -> 308
08:32:26.011 -> 311
08:32:26.011 -> 321
08:32:26.011 -> 314
08:32:26.011 -> 304
08:32:26.011 -> 304
08:32:26.053 -> 313
08:32:26.053 -> 304
08:32:26.053 -> 298
08:32:26.053 -> 310
08:32:26.053 -> 320
08:32:26.053 -> 309
08:32:26.053 -> 301
08:32:26.053 -> 310
08:32:26.093 -> 317
08:32:26.093 -> 308
08:32:26.093 -> 304
08:32:26.093 -> 314
08:32:26.093 -> 321
08:32:26.093 -> 311
08:32:26.093 -> 309
08:32:26.132 -> 321
08:32:26.132 -> 303
08:32:26.132 -> 303
08:32:26.132 -> 319
08:32:26.132 -> 321
08:32:26.132 -> 310
08:32:26.132 -> 310
08:32:26.132 -> 321
08:32:26.172 -> 318
08:32:26.172 -> 308
08:32:26.172 -> 309
08:32:26.172 -> 322
08:32:26.172 -> 317
08:32:26.172 -> 307
08:32:26.172 -> 313
08:32:26.212 -> 323
08:32:26.212 -> 320
08:32:26.212 -> 313
08:32:26.212 -> 323
08:32:26.212 -> 335
08:32:26.212 -> 331
08:32:26.212 -> 314
08:32:26.212 -> 319
08:32:26.252 -> 328
08:32:26.252 -> 325
08:32:26.252 -> 320
08:32:26.252 -> 330
08:32:26.252 -> 339
08:32:26.252 -> 327
08:32:26.252 -> 318
08:32:26.252 -> 323
08:32:26.292 -> 326
08:32:26.292 -> 314
08:32:26.292 -> 308
08:32:26.292 -> 319
08:32:26.292 -> 322
08:32:26.292 -> 313
08:32:26.292 -> 310
08:32:26.332 -> 321
08:32:26.332 -> 325
08:32:26.332 -> 314
08:32:26.332 -> 313
08:32:26.332 -> 327
08:32:26.332 -> 319
08:32:26.332 -> 301
08:32:26.332 -> 302
08:32:26.372 -> 322
08:32:26.372 -> 336
08:32:26.372 -> 345
08:32:26.372 -> 367
08:32:26.372 -> 378
08:32:26.372 -> 358
08:32:26.372 -> 330
08:32:26.372 -> 314
08:32:26.412 -> 296
08:32:26.412 -> 287
08:32:26.412 -> 297
08:32:26.412 -> 315
08:32:26.412 -> 328
08:32:26.412 -> 320
08:32:26.412 -> 312
08:32:26.412 -> 318
08:32:26.452 -> 332
08:32:26.452 -> 326
08:32:26.452 -> 319
08:32:26.452 -> 322
08:32:26.452 -> 313
08:32:26.452 -> 309
08:32:26.452 -> 321
08:32:26.452 -> 329
08:32:26.492 -> 321
08:32:26.492 -> 315
08:32:26.492 -> 325
08:32:26.492 -> 333
08:32:26.492 -> 322
08:32:26.492 -> 319
08:32:26.492 -> 330
08:32:26.532 -> 334
08:32:26.532 -> 325
08:32:26.532 -> 322
08:32:26.532 -> 335
08:32:26.532 -> 339
08:32:26.532 -> 328
08:32:26.532 -> 328
08:32:26.532 -> 342
08:32:26.572 -> 345
08:32:26.572 -> 340
08:32:26.572 -> 344
08:32:26.572 -> 347
08:32:26.572 -> 345
08:32:26.572 -> 339
08:32:26.572 -> 344
08:32:26.572 -> 358
08:32:26.612 -> 356
08:32:26.612 -> 346
08:32:26.612 -> 349
08:32:26.612 -> 360
08:32:26.612 -> 352
08:32:26.612 -> 339
08:32:26.612 -> 339
08:32:26.652 -> 344
08:32:26.652 -> 332
08:32:26.652 -> 319
08:32:26.652 -> 320
08:32:26.652 -> 326
08:32:26.652 -> 314
08:32:26.652 -> 305
08:32:26.692 -> 311
08:32:26.692 -> 318
08:32:26.692 -> 310
08:32:26.692 -> 308
08:32:26.692 -> 307
08:32:26.692 -> 309
08:32:26.692 -> 301
08:32:26.692 -> 298
08:32:26.732 -> 309
08:32:26.732 -> 315
08:32:26.732 -> 306
08:32:26.732 -> 302
08:32:26.732 -> 313
08:32:26.732 -> 315
08:32:26.732 -> 305
08:32:26.732 -> 304
08:32:26.772 -> 317
08:32:26.772 -> 316
08:32:26.772 -> 305
08:32:26.772 -> 305
08:32:26.772 -> 317
08:32:26.772 -> 306
08:32:26.772 -> 308
08:32:26.772 -> 319
08:32:26.812 -> 318
08:32:26.812 -> 307
08:32:26.812 -> 308
08:32:26.812 -> 319
08:32:26.812 -> 315
08:32:26.812 -> 307
08:32:26.812 -> 313
08:32:26.852 -> 325
08:32:26.852 -> 325
08:32:26.852 -> 306
08:32:26.852 -> 305
08:32:26.852 -> 316
08:32:26.852 -> 313
08:32:26.852 -> 306
08:32:26.852 -> 314
08:32:26.892 -> 322
08:32:26.892 -> 315
08:32:26.892 -> 310
08:32:26.892 -> 318
08:32:26.892 -> 324
08:32:26.892 -> 315
08:32:26.892 -> 310
08:32:26.892 -> 320
08:32:26.932 -> 326
08:32:26.932 -> 313
08:32:26.932 -> 311
08:32:26.932 -> 321
08:32:26.932 -> 324
08:32:26.932 -> 312
08:32:26.932 -> 310
08:32:26.932 -> 321
08:32:26.972 -> 324
08:32:26.972 -> 313
08:32:26.972 -> 310
08:32:26.972 -> 320
08:32:26.972 -> 321
08:32:26.972 -> 312
08:32:26.972 -> 313
08:32:27.012 -> 324
08:32:27.012 -> 321
08:32:27.012 -> 310
08:32:27.012 -> 313
08:32:27.012 -> 324
08:32:27.012 -> 319
08:32:27.012 -> 309
08:32:27.012 -> 317
08:32:27.052 -> 328
08:32:27.052 -> 321
08:32:27.052 -> 311
08:32:27.052 -> 318
08:32:27.052 -> 327
08:32:27.052 -> 320
08:32:27.052 -> 312
08:32:27.052 -> 320
08:32:27.092 -> 329
08:32:27.092 -> 320
08:32:27.092 -> 312
08:32:27.092 -> 321
08:32:27.092 -> 329
08:32:27.092 -> 320
08:32:27.092 -> 314
08:32:27.092 -> 328
08:32:27.132 -> 316
08:32:27.132 -> 311
08:32:27.132 -> 323
08:32:27.132 -> 327
08:32:27.132 -> 317
08:32:27.132 -> 314
08:32:27.132 -> 326
08:32:27.172 -> 328
08:32:27.172 -> 317
08:32:27.172 -> 315
08:32:27.172 -> 328
08:32:27.172 -> 328
08:32:27.172 -> 317
08:32:27.172 -> 316
08:32:27.212 -> 327
08:32:27.212 -> 326
08:32:27.212 -> 315
08:32:27.212 -> 318
08:32:27.212 -> 329
08:32:27.212 -> 325
08:32:27.212 -> 315
08:32:27.212 -> 318
08:32:27.252 -> 328
08:32:27.252 -> 324
08:32:27.252 -> 316
08:32:27.252 -> 320
08:32:27.252 -> 331
08:32:27.252 -> 324
08:32:27.252 -> 315
08:32:27.252 -> 322
08:32:27.292 -> 330
08:32:27.292 -> 321
08:32:27.292 -> 313
08:32:27.292 -> 320
08:32:27.292 -> 329
08:32:27.292 -> 320
08:32:27.292 -> 315
08:32:27.292 -> 324
08:32:27.332 -> 329
08:32:27.332 -> 320
08:32:27.332 -> 316
08:32:27.332 -> 325
08:32:27.332 -> 331
08:32:27.332 -> 320
08:32:27.332 -> 317
08:32:27.372 -> 329
08:32:27.372 -> 334
08:32:27.372 -> 325
08:32:27.372 -> 323
08:32:27.372 -> 332
08:32:27.372 -> 334
08:32:27.372 -> 325
08:32:27.372 -> 326
08:32:27.412 -> 336
08:32:27.412 -> 337
08:32:27.412 -> 329
08:32:27.412 -> 333
08:32:27.412 -> 345
08:32:27.412 -> 341
08:32:27.412 -> 326
08:32:27.412 -> 324
08:32:27.452 -> 332
08:32:27.452 -> 325
08:32:27.452 -> 317
08:32:27.452 -> 327
08:32:27.452 -> 320
08:32:27.452 -> 311
08:32:27.452 -> 318
08:32:27.452 -> 328
08:32:27.492 -> 320
08:32:27.492 -> 311
08:32:27.492 -> 318
08:32:27.492 -> 324
08:32:27.492 -> 316
08:32:27.492 -> 316
08:32:27.492 -> 337
08:32:27.532 -> 371
08:32:27.532 -> 391
08:32:27.532 -> 389
08:32:27.532 -> 381
08:32:27.532 -> 367
08:32:27.532 -> 334
08:32:27.532 -> 297
08:32:27.532 -> 298
08:32:27.572 -> 315
08:32:27.572 -> 311
08:32:27.572 -> 311
08:32:27.572 -> 323
08:32:27.572 -> 324
08:32:27.572 -> 314
08:32:27.572 -> 312
08:32:27.572 -> 323
08:32:27.612 -> 324
08:32:27.612 -> 314
08:32:27.612 -> 315
08:32:27.612 -> 326
08:32:27.612 -> 324
08:32:27.612 -> 315
08:32:27.612 -> 318
08:32:27.612 -> 330
08:32:27.652 -> 327
08:32:27.652 -> 318
08:32:27.652 -> 322
08:32:27.652 -> 333
08:32:27.652 -> 328
08:32:27.652 -> 319
08:32:27.652 -> 326
08:32:27.692 -> 336
08:32:27.692 -> 330
08:32:27.692 -> 323
08:32:27.692 -> 329
08:32:27.692 -> 340
08:32:27.692 -> 335
08:32:27.692 -> 329
08:32:27.732 -> 339
08:32:27.732 -> 349
08:32:27.732 -> 342
08:32:27.732 -> 337
08:32:27.732 -> 349
08:32:27.732 -> 357
08:32:27.732 -> 349
08:32:27.732 -> 346
08:32:27.772 -> 358
08:32:27.772 -> 364
08:32:27.772 -> 355
08:32:27.772 -> 353
08:32:27.772 -> 364
08:32:27.772 -> 352
08:32:27.772 -> 347
08:32:27.772 -> 355
08:32:27.812 -> 351
08:32:27.812 -> 335
08:32:27.812 -> 329
08:32:27.812 -> 337
08:32:27.812 -> 332
08:32:27.812 -> 318
08:32:27.812 -> 315
08:32:27.852 -> 325
08:32:27.852 -> 320
08:32:27.852 -> 307
08:32:27.852 -> 310
08:32:27.852 -> 321
08:32:27.852 -> 315
08:32:27.852 -> 304
08:32:27.852 -> 310
08:32:27.892 -> 320
08:32:27.892 -> 313
08:32:27.892 -> 303
08:32:27.892 -> 309
08:32:27.892 -> 319
08:32:27.892 -> 311
08:32:27.892 -> 303
08:32:27.892 -> 311
08:32:27.932 -> 320
08:32:27.932 -> 311
08:32:27.932 -> 303
08:32:27.932 -> 312
08:32:27.932 -> 319
08:32:27.932 -> 310
08:32:27.932 -> 304
08:32:27.932 -> 314
08:32:27.972 -> 319
08:32:27.972 -> 309
08:32:27.972 -> 305
08:32:27.972 -> 316
08:32:27.972 -> 319
08:32:27.972 -> 308
08:32:27.972 -> 305
08:32:27.972 -> 316
08:32:28.012 -> 317
08:32:28.012 -> 307
08:32:28.012 -> 307
08:32:28.012 -> 318
08:32:28.012 -> 317
08:32:28.012 -> 306
08:32:28.012 -> 308
08:32:28.053 -> 319
08:32:28.053 -> 317
08:32:28.053 -> 306
08:32:28.053 -> 308
08:32:28.053 -> 320
08:32:28.053 -> 316
08:32:28.053 -> 306
08:32:28.053 -> 310
08:32:28.093 -> 320
08:32:28.093 -> 315
08:32:28.093 -> 306
08:32:28.093 -> 312
08:32:28.093 -> 321
08:32:28.093 -> 314
08:32:28.093 -> 305
08:32:28.093 -> 322
08:32:28.131 -> 314
08:32:28.131 -> 306
08:32:28.131 -> 314
08:32:28.131 -> 321
08:32:28.131 -> 312
08:32:28.131 -> 305
08:32:28.131 -> 316
08:32:28.171 -> 320
08:32:28.171 -> 310
08:32:28.171 -> 305
08:32:28.171 -> 315
08:32:28.171 -> 319
08:32:28.171 -> 308
08:32:28.171 -> 306
08:32:28.171 -> 317
08:32:28.211 -> 320
08:32:28.211 -> 308
08:32:28.211 -> 307
08:32:28.211 -> 319
08:32:28.211 -> 319
08:32:28.211 -> 308
08:32:28.211 -> 308
08:32:28.251 -> 320
08:32:28.251 -> 319
08:32:28.251 -> 309
08:32:28.251 -> 310
08:32:28.251 -> 320
08:32:28.251 -> 317
08:32:28.251 -> 307
08:32:28.251 -> 311
08:32:28.302 -> 322
08:32:28.302 -> 318
08:32:28.302 -> 307
08:32:28.302 -> 313
08:32:28.302 -> 323
08:32:28.302 -> 316
08:32:28.302 -> 307
08:32:28.302 -> 314
08:32:28.302 -> 323
08:32:28.302 -> 316
08:32:28.342 -> 308
08:32:28.342 -> 315
08:32:28.342 -> 324
08:32:28.342 -> 314
08:32:28.342 -> 307
08:32:28.342 -> 316
08:32:28.342 -> 322
08:32:28.342 -> 314
08:32:28.382 -> 309
08:32:28.382 -> 319
08:32:28.382 -> 324
08:32:28.382 -> 315
08:32:28.382 -> 310
08:32:28.382 -> 320
08:32:28.382 -> 323
08:32:28.382 -> 312
08:32:28.422 -> 309
08:32:28.422 -> 321
08:32:28.422 -> 324
08:32:28.422 -> 313
08:32:28.422 -> 311
08:32:28.422 -> 323
08:32:28.422 -> 323
08:32:28.462 -> 322
08:32:28.462 -> 332
08:32:28.462 -> 328
08:32:28.462 -> 321
08:32:28.462 -> 327
08:32:28.462 -> 338
08:32:28.462 -> 335
08:32:28.502 -> 326
08:32:28.502 -> 331
08:32:28.502 -> 340
08:32:28.502 -> 331
08:32:28.502 -> 316
08:32:28.502 -> 318
08:32:28.502 -> 324
08:32:28.502 -> 315
08:32:28.542 -> 306
08:32:28.542 -> 314
08:32:28.542 -> 322
08:32:28.542 -> 314
08:32:28.542 -> 306
08:32:28.542 -> 315
08:32:28.542 -> 322
08:32:28.542 -> 311
08:32:28.582 -> 302
08:32:28.582 -> 313
08:32:28.582 -> 327
08:32:28.582 -> 333
08:32:28.582 -> 359
08:32:28.582 -> 399
08:32:28.582 -> 401
08:32:28.582 -> 368
08:32:28.622 -> 344
08:32:28.622 -> 330
08:32:28.622 -> 296
08:32:28.622 -> 280
08:32:28.622 -> 297
08:32:28.622 -> 317
08:32:28.622 -> 319
08:32:28.662 -> 309
08:32:28.662 -> 310
08:32:28.662 -> 322
08:32:28.662 -> 320
08:32:28.662 -> 310
08:32:28.662 -> 312
08:32:28.662 -> 324
08:32:28.662 -> 322
08:32:28.702 -> 312
08:32:28.702 -> 316
08:32:28.702 -> 326
08:32:28.702 -> 322
08:32:28.702 -> 314
08:32:28.702 -> 320
08:32:28.702 -> 330
08:32:28.702 -> 323
08:32:28.742 -> 316
08:32:28.742 -> 323
08:32:28.742 -> 334
08:32:28.742 -> 325
08:32:28.742 -> 318
08:32:28.742 -> 326
08:32:28.742 -> 335
08:32:28.742 -> 328
08:32:28.782 -> 323
08:32:28.782 -> 335
08:32:28.782 -> 335
08:32:28.782 -> 333
08:32:28.782 -> 346
08:32:28.782 -> 352
08:32:28.782 -> 344
08:32:28.822 -> 343
08:32:28.822 -> 356
08:32:28.822 -> 360
08:32:28.822 -> 351
08:32:28.822 -> 350
08:32:28.822 -> 363
08:32:28.822 -> 364
08:32:28.822 -> 353
08:32:28.862 -> 351
08:32:28.862 -> 360
08:32:28.862 -> 354
08:32:28.862 -> 340
08:32:28.862 -> 335
08:32:28.862 -> 342
08:32:28.862 -> 333
08:32:28.862 -> 317
08:32:28.902 -> 316
08:32:28.902 -> 324
08:32:28.902 -> 317
08:32:28.902 -> 306
08:32:28.902 -> 309
08:32:28.902 -> 317
08:32:28.902 -> 310
08:32:28.942 -> 302
08:32:28.942 -> 309
08:32:28.942 -> 318
08:32:28.942 -> 309
08:32:28.942 -> 301
08:32:28.942 -> 310
08:32:28.942 -> 318
08:32:28.942 -> 308
08:32:28.982 -> 302
08:32:28.982 -> 311
08:32:28.982 -> 317
08:32:28.982 -> 307
08:32:28.982 -> 302
08:32:28.982 -> 311
08:32:28.982 -> 318
08:32:29.022 -> 307
08:32:29.022 -> 303
08:32:29.022 -> 314
08:32:29.022 -> 318
08:32:29.022 -> 307
08:32:29.022 -> 306
08:32:29.022 -> 317
08:32:29.022 -> 318
08:32:29.062 -> 307
08:32:29.062 -> 307
08:32:29.062 -> 319
08:32:29.062 -> 318
08:32:29.062 -> 307
08:32:29.062 -> 309
08:32:29.062 -> 321
08:32:29.062 -> 319
08:32:29.102 -> 308
08:32:29.102 -> 312
08:32:29.102 -> 323
08:32:29.102 -> 318
08:32:29.102 -> 308
08:32:29.102 -> 323
08:32:29.102 -> 318
08:32:29.142 -> 309
08:32:29.142 -> 315
08:32:29.142 -> 324
08:32:29.142 -> 318
08:32:29.142 -> 310
08:32:29.142 -> 317
08:32:29.142 -> 325
08:32:29.142 -> 318
08:32:29.182 -> 311
08:32:29.182 -> 320
08:32:29.182 -> 326
08:32:29.182 -> 318
08:32:29.182 -> 312
08:32:29.182 -> 322
08:32:29.182 -> 327
08:32:29.182 -> 316
08:32:29.222 -> 312
08:32:29.222 -> 323
08:32:29.222 -> 327
08:32:29.222 -> 316
08:32:29.222 -> 313
08:32:29.222 -> 325
08:32:29.222 -> 326
08:32:29.222 -> 315
08:32:29.262 -> 316
08:32:29.262 -> 326
08:32:29.262 -> 327
08:32:29.262 -> 317
08:32:29.262 -> 315
08:32:29.262 -> 326
08:32:29.262 -> 326
08:32:29.262 -> 316
08:32:29.302 -> 318
08:32:29.302 -> 330
08:32:29.302 -> 326
08:32:29.302 -> 316
08:32:29.302 -> 319
08:32:29.302 -> 331
08:32:29.302 -> 326
08:32:29.342 -> 317
08:32:29.342 -> 322
08:32:29.342 -> 332
08:32:29.342 -> 325
08:32:29.342 -> 316
08:32:29.342 -> 323
08:32:29.342 -> 333
08:32:29.342 -> 325
08:32:29.382 -> 317
08:32:29.382 -> 325
08:32:29.382 -> 332
08:32:29.382 -> 323
08:32:29.382 -> 317
08:32:29.382 -> 325
08:32:29.382 -> 332
08:32:29.382 -> 323
08:32:29.422 -> 319
08:32:29.422 -> 329
08:32:29.422 -> 333
08:32:29.422 -> 321
08:32:29.422 -> 318
08:32:29.422 -> 329
08:32:29.422 -> 331
08:32:29.462 -> 322
08:32:29.462 -> 337
08:32:29.462 -> 339
08:32:29.462 -> 328
08:32:29.462 -> 329
08:32:29.462 -> 341
08:32:29.462 -> 341
08:32:29.462 -> 331
08:32:29.502 -> 334
08:32:29.502 -> 349
08:32:29.502 -> 346
08:32:29.502 -> 334
08:32:29.502 -> 334
08:32:29.502 -> 341
08:32:29.502 -> 332
08:32:29.542 -> 318
08:32:29.542 -> 320
08:32:29.542 -> 329
08:32:29.542 -> 323
08:32:29.542 -> 314
08:32:29.542 -> 320
08:32:29.542 -> 329
08:32:29.542 -> 321
08:32:29.582 -> 313
08:32:29.582 -> 320
08:32:29.582 -> 328
08:32:29.582 -> 318
08:32:29.582 -> 314
08:32:29.582 -> 332
08:32:29.582 -> 359
08:32:29.582 -> 380
08:32:29.622 -> 399
08:32:29.622 -> 400
08:32:29.622 -> 379
08:32:29.622 -> 347
08:32:29.622 -> 314
08:32:29.622 -> 289
08:32:29.622 -> 297
08:32:29.662 -> 307
08:32:29.662 -> 314
08:32:29.662 -> 328
08:32:29.662 -> 329
08:32:29.662 -> 318
08:32:29.662 -> 319
08:32:29.662 -> 329
08:32:29.662 -> 328
08:32:29.702 -> 317
08:32:29.702 -> 318
08:32:29.702 -> 331
08:32:29.702 -> 330
08:32:29.702 -> 319
08:32:29.702 -> 323
08:32:29.702 -> 336
08:32:29.702 -> 332
08:32:29.742 -> 322
08:32:29.742 -> 327
08:32:29.742 -> 338
08:32:29.742 -> 333
08:32:29.742 -> 325
08:32:29.742 -> 331
08:32:29.742 -> 340
08:32:29.742 -> 334
08:32:29.782 -> 326
08:32:29.782 -> 335
08:32:29.782 -> 337
08:32:29.782 -> 333
08:32:29.782 -> 342
08:32:29.782 -> 352
08:32:29.782 -> 344
08:32:29.822 -> 340
08:32:29.822 -> 353
08:32:29.822 -> 361
08:32:29.822 -> 353
08:32:29.822 -> 352
08:32:29.822 -> 364
08:32:29.822 -> 370
08:32:29.822 -> 360
08:32:29.862 -> 357
08:32:29.862 -> 369
08:32:29.862 -> 371
08:32:29.862 -> 357
08:32:29.862 -> 353
08:32:29.862 -> 359
08:32:29.862 -> 355
08:32:29.862 -> 338
08:32:29.902 -> 333
08:32:29.902 -> 338
08:32:29.902 -> 332
08:32:29.902 -> 317
08:32:29.902 -> 313
08:32:29.902 -> 322
08:32:29.902 -> 317
08:32:29.902 -> 305
08:32:29.942 -> 309
08:32:29.942 -> 319
08:32:29.942 -> 314
08:32:29.942 -> 303
08:32:29.942 -> 308
08:32:29.942 -> 318
08:32:29.942 -> 311
08:32:29.982 -> 303
08:32:29.982 -> 309
08:32:29.982 -> 317
08:32:29.982 -> 310
08:32:29.982 -> 302
08:32:29.982 -> 310
08:32:29.982 -> 318
08:32:29.982 -> 309
08:32:30.022 -> 303
08:32:30.022 -> 313
08:32:30.022 -> 320
08:32:30.022 -> 310
08:32:30.022 -> 305
08:32:30.022 -> 315
08:32:30.022 -> 319
08:32:30.063 -> 308
08:32:30.063 -> 305
08:32:30.063 -> 317
08:32:30.063 -> 320
08:32:30.063 -> 308
08:32:30.063 -> 306
08:32:30.063 -> 318
08:32:30.063 -> 319
08:32:30.103 -> 307
08:32:30.103 -> 306
08:32:30.103 -> 318
08:32:30.103 -> 317
08:32:30.103 -> 307
08:32:30.103 -> 320
08:32:30.103 -> 317
08:32:30.103 -> 308
08:32:30.142 -> 311
08:32:30.142 -> 322
08:32:30.142 -> 317
08:32:30.142 -> 307
08:32:30.142 -> 312
08:32:30.142 -> 323
08:32:30.142 -> 317
08:32:30.182 -> 307
08:32:30.182 -> 313
08:32:30.182 -> 323
08:32:30.182 -> 316
08:32:30.182 -> 308
08:32:30.182 -> 315
08:32:30.182 -> 324
08:32:30.182 -> 316
08:32:30.222 -> 308
08:32:30.222 -> 317
08:32:30.222 -> 324
08:32:30.222 -> 314
08:32:30.222 -> 309
08:32:30.222 -> 318
08:32:30.222 -> 323
08:32:30.222 -> 312
08:32:30.262 -> 307
08:32:30.262 -> 318
08:32:30.262 -> 322
08:32:30.262 -> 312
08:32:30.262 -> 310
08:32:30.262 -> 321
08:32:30.262 -> 323
08:32:30.262 -> 313
08:32:30.302 -> 312
08:32:30.302 -> 324
08:32:30.302 -> 324
08:32:30.302 -> 314
08:32:30.302 -> 314
08:32:30.302 -> 326
08:32:30.302 -> 324
08:32:30.302 -> 313
08:32:30.342 -> 315
08:32:30.342 -> 326
08:32:30.342 -> 322
08:32:30.342 -> 312
08:32:30.342 -> 316
08:32:30.342 -> 327
08:32:30.342 -> 322
08:32:30.382 -> 311
08:32:30.382 -> 317
08:32:30.382 -> 327
08:32:30.382 -> 320
08:32:30.382 -> 311
08:32:30.382 -> 318
08:32:30.382 -> 329
08:32:30.382 -> 323
08:32:30.422 -> 316
08:32:30.422 -> 325
08:32:30.422 -> 335
08:32:30.422 -> 325
08:32:30.422 -> 317
08:32:30.422 -> 328
08:32:30.422 -> 337
08:32:30.422 -> 330
08:32:30.462 -> 339
08:32:30.462 -> 338
08:32:30.462 -> 322
08:32:30.462 -> 314
08:32:30.462 -> 322
08:32:30.462 -> 324
08:32:30.462 -> 312
08:32:30.502 -> 311
08:32:30.502 -> 322
08:32:30.502 -> 322
08:32:30.502 -> 311
08:32:30.502 -> 312
08:32:30.502 -> 323
08:32:30.502 -> 322
08:32:30.502 -> 310
08:32:30.542 -> 311
08:32:30.542 -> 323
08:32:30.542 -> 324
08:32:30.542 -> 327
08:32:30.542 -> 355
08:32:30.542 -> 396
08:32:30.542 -> 402
08:32:30.582 -> 369
08:32:30.582 -> 349
08:32:30.582 -> 337
08:32:30.582 -> 296
08:32:30.582 -> 266
08:32:30.582 -> 291
08:32:30.582 -> 320
08:32:30.582 -> 318
08:32:30.622 -> 311
08:32:30.622 -> 321
08:32:30.622 -> 328
08:32:30.622 -> 319
08:32:30.622 -> 312
08:32:30.622 -> 322
08:32:30.622 -> 330
08:32:30.622 -> 321
08:32:30.662 -> 316
08:32:30.662 -> 327
08:32:30.662 -> 331
08:32:30.662 -> 322
08:32:30.662 -> 319
08:32:30.662 -> 331
08:32:30.662 -> 334
08:32:30.702 -> 324
08:32:30.702 -> 322
08:32:30.702 -> 335
08:32:30.702 -> 337
08:32:30.702 -> 327
08:32:30.702 -> 327
08:32:30.702 -> 339
08:32:30.702 -> 338
08:32:30.742 -> 328
08:32:30.742 -> 332
08:32:30.742 -> 345
08:32:30.742 -> 345
08:32:30.742 -> 336
08:32:30.742 -> 341
08:32:30.742 -> 354
08:32:30.742 -> 353
08:32:30.782 -> 346
08:32:30.782 -> 353
08:32:30.782 -> 361
08:32:30.782 -> 353
08:32:30.782 -> 361
08:32:30.782 -> 371
08:32:30.782 -> 364
08:32:30.782 -> 355
08:32:30.822 -> 363
08:32:30.822 -> 369
08:32:30.822 -> 357
08:32:30.822 -> 346
08:32:30.822 -> 349
08:32:30.822 -> 349
08:32:30.822 -> 334
08:32:30.862 -> 323
08:32:30.862 -> 329
08:32:30.862 -> 330
08:32:30.862 -> 316
08:32:30.862 -> 309
08:32:30.862 -> 318
08:32:30.862 -> 321
08:32:30.862 -> 310
08:32:30.902 -> 307
08:32:30.902 -> 318
08:32:30.902 -> 318
08:32:30.902 -> 306
08:32:30.902 -> 305
08:32:30.902 -> 316
08:32:30.902 -> 316
08:32:30.902 -> 305
08:32:30.942 -> 305
08:32:30.942 -> 318
08:32:30.942 -> 315
08:32:30.942 -> 305
08:32:30.942 -> 308
08:32:30.942 -> 319
08:32:30.942 -> 317
08:32:30.942 -> 306
08:32:30.982 -> 312
08:32:30.982 -> 321
08:32:30.982 -> 317
08:32:30.982 -> 307
08:32:30.982 -> 314
08:32:30.982 -> 324
08:32:30.982 -> 317
08:32:31.022 -> 308
08:32:31.022 -> 315
08:32:31.022 -> 324
08:32:31.022 -> 316
08:32:31.022 -> 307
08:32:31.022 -> 314
08:32:31.022 -> 321
08:32:31.022 -> 312
08:32:31.062 -> 306
08:32:31.062 -> 315
08:32:31.062 -> 321
08:32:31.062 -> 311
08:32:31.062 -> 305
08:32:31.062 -> 315
08:32:31.062 -> 320
08:32:31.102 -> 311
08:32:31.102 -> 306
08:32:31.102 -> 318
08:32:31.102 -> 321
08:32:31.102 -> 311
08:32:31.102 -> 319
08:32:31.102 -> 321
08:32:31.102 -> 311
08:32:31.142 -> 311
08:32:31.142 -> 321
08:32:31.142 -> 321
08:32:31.142 -> 310
08:32:31.142 -> 311
08:32:31.142 -> 324
08:32:31.142 -> 321
08:32:31.142 -> 310
08:32:31.182 -> 314
08:32:31.182 -> 324
08:32:31.182 -> 319
08:32:31.182 -> 310
08:32:31.182 -> 316
08:32:31.182 -> 325
08:32:31.182 -> 319
08:32:31.222 -> 309
08:32:31.222 -> 317
08:32:31.222 -> 325
08:32:31.222 -> 318
08:32:31.222 -> 310
08:32:31.222 -> 318
08:32:31.222 -> 326
08:32:31.222 -> 317
08:32:31.262 -> 311
08:32:31.262 -> 320
08:32:31.262 -> 327
08:32:31.262 -> 317
08:32:31.262 -> 312
08:32:31.262 -> 323
08:32:31.262 -> 328
08:32:31.262 -> 316
08:32:31.302 -> 313
08:32:31.302 -> 324
08:32:31.302 -> 327
08:32:31.302 -> 316
08:32:31.302 -> 313
08:32:31.302 -> 323
08:32:31.302 -> 325
08:32:31.302 -> 314
08:32:31.342 -> 313
08:32:31.342 -> 326
08:32:31.342 -> 326
08:32:31.342 -> 318
08:32:31.342 -> 318
08:32:31.342 -> 330
08:32:31.342 -> 329
08:32:31.382 -> 320
08:32:31.382 -> 322
08:32:31.382 -> 333
08:32:31.382 -> 332
08:32:31.382 -> 325
08:32:31.382 -> 333
08:32:31.382 -> 343
08:32:31.382 -> 333
08:32:31.422 -> 318
08:32:31.422 -> 319
08:32:31.422 -> 326
08:32:31.422 -> 317
08:32:31.422 -> 309
08:32:31.422 -> 317
08:32:31.422 -> 327
08:32:31.422 -> 310
08:32:31.462 -> 320
08:32:31.462 -> 326
08:32:31.462 -> 315
08:32:31.462 -> 309
08:32:31.462 -> 318
08:32:31.462 -> 323
08:32:31.462 -> 319
08:32:31.462 -> 333
08:32:31.502 -> 371
08:32:31.502 -> 405
08:32:31.502 -> 393
08:32:31.502 -> 363
08:32:31.502 -> 349
08:32:31.502 -> 327
08:32:31.502 -> 279
08:32:31.542 -> 269
08:32:31.542 -> 313
08:32:31.542 -> 325
08:32:31.542 -> 315
08:32:31.542 -> 311
08:32:31.542 -> 323
08:32:31.542 -> 323
08:32:31.582 -> 313
08:32:31.582 -> 316
08:32:31.582 -> 329
08:32:31.582 -> 326
08:32:31.582 -> 316
08:32:31.582 -> 320
08:32:31.582 -> 332
08:32:31.582 -> 327
08:32:31.622 -> 318
08:32:31.622 -> 324
08:32:31.622 -> 335
08:32:31.622 -> 329
08:32:31.622 -> 320
08:32:31.622 -> 327
08:32:31.622 -> 337
08:32:31.622 -> 329
08:32:31.662 -> 322
08:32:31.662 -> 333
08:32:31.662 -> 339
08:32:31.662 -> 332
08:32:31.662 -> 326
08:32:31.662 -> 338
08:32:31.662 -> 346
08:32:31.662 -> 338
08:32:31.702 -> 335
08:32:31.702 -> 347
08:32:31.702 -> 354
08:32:31.702 -> 346
08:32:31.702 -> 345
08:32:31.702 -> 359
08:32:31.702 -> 365
08:32:31.742 -> 356
08:32:31.742 -> 355
08:32:31.742 -> 368
08:32:31.742 -> 370
08:32:31.742 -> 359
08:32:31.742 -> 358
08:32:31.742 -> 369
08:32:31.742 -> 365
08:32:31.782 -> 349
08:32:31.782 -> 346
08:32:31.782 -> 345
08:32:31.782 -> 326
08:32:31.782 -> 326
08:32:31.782 -> 343
08:32:31.782 -> 321
08:32:31.782 -> 303
08:32:31.822 -> 308
08:32:31.822 -> 320
08:32:31.822 -> 313
08:32:31.822 -> 303
08:32:31.822 -> 307
08:32:31.822 -> 317
08:32:31.822 -> 309
08:32:31.822 -> 302
08:32:31.862 -> 309
08:32:31.862 -> 316
08:32:31.862 -> 306
08:32:31.862 -> 300
08:32:31.862 -> 310
08:32:31.862 -> 317
08:32:31.862 -> 307
08:32:31.902 -> 302
08:32:31.902 -> 311
08:32:31.902 -> 316
08:32:31.902 -> 306
08:32:31.902 -> 304
08:32:31.902 -> 316
08:32:31.902 -> 321
08:32:31.902 -> 314
08:32:31.942 -> 307
08:32:31.942 -> 315
08:32:31.942 -> 317
08:32:31.942 -> 309
08:32:31.942 -> 307
08:32:31.942 -> 318
08:32:31.942 -> 318
08:32:31.942 -> 306
08:32:31.982 -> 306
08:32:31.982 -> 317
08:32:31.982 -> 315
08:32:31.982 -> 304
08:32:31.982 -> 308
08:32:31.982 -> 318
08:32:31.982 -> 313
08:32:31.982 -> 304
08:32:32.022 -> 308
08:32:32.022 -> 320
08:32:32.022 -> 315
08:32:32.022 -> 305
08:32:32.022 -> 310
08:32:32.022 -> 320
08:32:32.022 -> 313
08:32:32.064 -> 305
08:32:32.064 -> 313
08:32:32.064 -> 322
08:32:32.064 -> 313
08:32:32.064 -> 304
08:32:32.064 -> 314
08:32:32.064 -> 321
08:32:32.064 -> 312
08:32:32.104 -> 306
08:32:32.104 -> 316
08:32:32.104 -> 322
08:32:32.104 -> 310
08:32:32.104 -> 317
08:32:32.104 -> 321
08:32:32.104 -> 310
08:32:32.104 -> 306
08:32:32.152 -> 317
08:32:32.152 -> 320
08:32:32.152 -> 310
08:32:32.152 -> 309
08:32:32.152 -> 320
08:32:32.152 -> 319
08:32:32.152 -> 308
08:32:32.152 -> 309
08:32:32.152 -> 321
08:32:32.192 -> 321
08:32:32.192 -> 307
08:32:32.192 -> 308
08:32:32.192 -> 321
08:32:32.192 -> 319
08:32:32.192 -> 308
08:32:32.192 -> 312
08:32:32.192 -> 325
08:32:32.232 -> 319
08:32:32.232 -> 307
08:32:32.232 -> 313
08:32:32.232 -> 324
08:32:32.232 -> 318
08:32:32.232 -> 308
08:32:32.232 -> 316
08:32:32.232 -> 325
08:32:32.272 -> 319
08:32:32.272 -> 313
08:32:32.272 -> 320
08:32:32.272 -> 327
08:32:32.272 -> 321
08:32:32.272 -> 317
08:32:32.272 -> 325
08:32:32.312 -> 332
08:32:32.312 -> 324
08:32:32.312 -> 322
08:32:32.312 -> 336
08:32:32.312 -> 342
08:32:32.312 -> 326
08:32:32.312 -> 317
08:32:32.352 -> 323
08:32:32.352 -> 323
08:32:32.352 -> 310
08:32:32.352 -> 308
08:32:32.352 -> 321
08:32:32.352 -> 322
08:32:32.352 -> 310
08:32:32.352 -> 310
08:32:32.392 -> 322
08:32:32.392 -> 320
08:32:32.392 -> 308
08:32:32.392 -> 310
08:32:32.392 -> 321
08:32:32.392 -> 319
08:32:32.392 -> 316
08:32:32.392 -> 334
08:32:32.432 -> 371
08:32:32.432 -> 402
08:32:32.432 -> 389
08:32:32.432 -> 366
08:32:32.432 -> 352
08:32:32.432 -> 276
08:32:32.432 -> 270
08:32:32.472 -> 306
08:32:32.472 -> 316
08:32:32.472 -> 311
08:32:32.472 -> 320
08:32:32.472 -> 328
08:32:32.472 -> 319
08:32:32.472 -> 311
08:32:32.472 -> 322
08:32:32.512 -> 331
08:32:32.512 -> 322
08:32:32.512 -> 315
08:32:32.512 -> 325
08:32:32.512 -> 331
08:32:32.512 -> 322
08:32:32.512 -> 318
08:32:32.512 -> 329
08:32:32.552 -> 334
08:32:32.552 -> 324
08:32:32.552 -> 322
08:32:32.552 -> 333
08:32:32.552 -> 335
08:32:32.552 -> 325
08:32:32.552 -> 325
08:32:32.552 -> 336
08:32:32.592 -> 337
08:32:32.592 -> 327
08:32:32.592 -> 330
08:32:32.592 -> 343
08:32:32.592 -> 342
08:32:32.592 -> 334
08:32:32.592 -> 339
08:32:32.592 -> 352
08:32:32.632 -> 351
08:32:32.632 -> 343
08:32:32.632 -> 351
08:32:32.632 -> 364
08:32:32.632 -> 361
08:32:32.632 -> 353
08:32:32.632 -> 361
08:32:32.672 -> 372
08:32:32.672 -> 366
08:32:32.672 -> 356
08:32:32.672 -> 363
08:32:32.672 -> 371
08:32:32.672 -> 361
08:32:32.672 -> 350
08:32:32.672 -> 352
08:32:32.712 -> 353
08:32:32.712 -> 339
08:32:32.712 -> 326
08:32:32.712 -> 329
08:32:32.712 -> 330
08:32:32.712 -> 317
08:32:32.712 -> 308
08:32:32.712 -> 316
08:32:32.752 -> 318
08:32:32.752 -> 306
08:32:32.752 -> 302
08:32:32.752 -> 314
08:32:32.752 -> 316
08:32:32.752 -> 304
08:32:32.752 -> 302
08:32:32.752 -> 314
08:32:32.792 -> 304
08:32:32.792 -> 303
08:32:32.792 -> 314
08:32:32.792 -> 314
08:32:32.792 -> 304
08:32:32.792 -> 305
08:32:32.792 -> 317
08:32:32.832 -> 314
08:32:32.832 -> 304
08:32:32.832 -> 309
08:32:32.832 -> 320
08:32:32.832 -> 314
08:32:32.832 -> 305
08:32:32.832 -> 311
08:32:32.872 -> 320
08:32:32.872 -> 314
08:32:32.872 -> 304
08:32:32.872 -> 312
08:32:32.872 -> 321
08:32:32.872 -> 313
08:32:32.872 -> 305
08:32:32.872 -> 312
08:32:32.912 -> 321
08:32:32.912 -> 311
08:32:32.912 -> 304
08:32:32.912 -> 312
08:32:32.912 -> 319
08:32:32.912 -> 309
08:32:32.912 -> 305
08:32:32.912 -> 319
08:32:32.952 -> 321
08:32:32.952 -> 310
08:32:32.952 -> 307
08:32:32.952 -> 318
08:32:32.952 -> 319
08:32:32.952 -> 308
08:32:32.952 -> 307
08:32:32.952 -> 318
08:32:32.992 -> 320
08:32:32.992 -> 309
08:32:32.992 -> 307
08:32:32.992 -> 319
08:32:32.992 -> 318
08:32:32.992 -> 307
08:32:32.992 -> 309
08:32:33.032 -> 321
08:32:33.032 -> 318
08:32:33.032 -> 308
08:32:33.032 -> 310
08:32:33.032 -> 321
08:32:33.032 -> 317
08:32:33.032 -> 307
08:32:33.032 -> 312
08:32:33.072 -> 322
08:32:33.072 -> 316
08:32:33.072 -> 307
08:32:33.072 -> 314
08:32:33.072 -> 323
08:32:33.072 -> 316
08:32:33.072 -> 307
08:32:33.072 -> 314
08:32:33.112 -> 322
08:32:33.112 -> 314
08:32:33.112 -> 318
08:32:33.112 -> 324
08:32:33.112 -> 315
08:32:33.112 -> 311
08:32:33.112 -> 323
08:32:33.112 -> 330
08:32:33.152 -> 318
08:32:33.152 -> 316
08:32:33.152 -> 328
08:32:33.152 -> 332
08:32:33.152 -> 320
08:32:33.152 -> 318
08:32:33.152 -> 333
08:32:33.192 -> 339
08:32:33.192 -> 331
08:32:33.192 -> 326
08:32:33.192 -> 332
08:32:33.192 -> 326
08:32:33.192 -> 312
08:32:33.192 -> 310
08:32:33.192 -> 321
08:32:33.232 -> 320
08:32:33.232 -> 310
08:32:33.232 -> 312
08:32:33.232 -> 323
08:32:33.232 -> 318
08:32:33.232 -> 309
08:32:33.232 -> 313
08:32:33.232 -> 324
08:32:33.272 -> 320
08:32:33.272 -> 308
08:32:33.272 -> 315
08:32:33.272 -> 335
08:32:33.272 -> 352
08:32:33.272 -> 373
08:32:33.272 -> 399
08:32:33.272 -> 388
08:32:33.312 -> 351
08:32:33.312 -> 322
08:32:33.312 -> 302
08:32:33.312 -> 277
08:32:33.312 -> 279
08:32:33.312 -> 298
08:32:33.312 -> 319
08:32:33.352 -> 327
08:32:33.352 -> 317
08:32:33.352 -> 312
08:32:33.352 -> 323
08:32:33.352 -> 327
08:32:33.352 -> 318
08:32:33.352 -> 315
08:32:33.392 -> 327
08:32:33.392 -> 330
08:32:33.392 -> 319
08:32:33.392 -> 318
08:32:33.392 -> 330
08:32:33.392 -> 331
08:32:33.392 -> 321
08:32:33.392 -> 322
08:32:33.432 -> 335
08:32:33.432 -> 334
08:32:33.432 -> 324
08:32:33.432 -> 325
08:32:33.432 -> 339
08:32:33.432 -> 327
08:32:33.432 -> 331
08:32:33.432 -> 344
08:32:33.472 -> 340
08:32:33.472 -> 331
08:32:33.472 -> 338
08:32:33.472 -> 351
08:32:33.472 -> 347
08:32:33.472 -> 341
08:32:33.472 -> 349
08:32:33.512 -> 360
08:32:33.512 -> 355
08:32:33.512 -> 349
08:32:33.512 -> 360
08:32:33.512 -> 370
08:32:33.512 -> 363
08:32:33.512 -> 358
08:32:33.512 -> 367
08:32:33.552 -> 374
08:32:33.552 -> 363
08:32:33.552 -> 356
08:32:33.552 -> 362
08:32:33.552 -> 362
08:32:33.552 -> 346
08:32:33.552 -> 336
08:32:33.552 -> 340
08:32:33.592 -> 337
08:32:33.592 -> 319
08:32:33.592 -> 311
08:32:33.592 -> 320
08:32:33.592 -> 318
08:32:33.592 -> 305
08:32:33.592 -> 303
08:32:33.592 -> 315
08:32:33.632 -> 314
08:32:33.632 -> 302
08:32:33.632 -> 302
08:32:33.632 -> 314
08:32:33.632 -> 311
08:32:33.632 -> 301
08:32:33.632 -> 305
08:32:33.672 -> 315
08:32:33.672 -> 311
08:32:33.672 -> 301
08:32:33.672 -> 305
08:32:33.672 -> 316
08:32:33.672 -> 312
08:32:33.672 -> 303
08:32:33.672 -> 308
08:32:33.712 -> 319
08:32:33.712 -> 312
08:32:33.712 -> 304
08:32:33.712 -> 312
08:32:33.712 -> 320
08:32:33.712 -> 311
08:32:33.712 -> 304
08:32:33.712 -> 313
08:32:33.752 -> 320
08:32:33.752 -> 310
08:32:33.752 -> 305
08:32:33.752 -> 314
08:32:33.752 -> 316
08:32:33.752 -> 305
08:32:33.752 -> 302
08:32:33.752 -> 316
08:32:33.792 -> 305
08:32:33.792 -> 302
08:32:33.792 -> 313
08:32:33.792 -> 315
08:32:33.792 -> 303
08:32:33.792 -> 302
08:32:33.792 -> 314
08:32:33.832 -> 315
08:32:33.832 -> 302
08:32:33.832 -> 302
08:32:33.832 -> 313
08:32:33.832 -> 312
08:32:33.832 -> 302
08:32:33.832 -> 303
08:32:33.832 -> 315
08:32:33.872 -> 312
08:32:33.872 -> 301
08:32:33.872 -> 305
08:32:33.872 -> 318
08:32:33.872 -> 313
08:32:33.872 -> 303
08:32:33.872 -> 308
08:32:33.912 -> 318
08:32:33.912 -> 312
08:32:33.912 -> 304
08:32:33.912 -> 310
08:32:33.912 -> 318
08:32:33.912 -> 311
08:32:33.912 -> 303
08:32:33.912 -> 312
08:32:33.952 -> 321
08:32:33.952 -> 312
08:32:33.952 -> 306
08:32:33.952 -> 315
08:32:33.952 -> 320
08:32:33.952 -> 310
08:32:33.952 -> 306
08:32:33.952 -> 317
08:32:33.992 -> 320
08:32:33.992 -> 310
08:32:33.992 -> 306
08:32:33.992 -> 317
08:32:33.992 -> 321
08:32:33.992 -> 312
08:32:33.992 -> 311
08:32:34.032 -> 324
08:32:34.032 -> 323
08:32:34.032 -> 315
08:32:34.032 -> 318
08:32:34.032 -> 327
08:32:34.032 -> 325
08:32:34.032 -> 316
08:32:34.032 -> 320
08:32:34.073 -> 338
08:32:34.073 -> 335
08:32:34.073 -> 320
08:32:34.073 -> 319
08:32:34.073 -> 325
08:32:34.073 -> 316
08:32:34.073 -> 304
08:32:34.073 -> 308
08:32:34.113 -> 319
08:32:34.113 -> 313
08:32:34.113 -> 311
08:32:34.113 -> 320
08:32:34.113 -> 312
08:32:34.113 -> 304
08:32:34.113 -> 313
08:32:34.113 -> 320
08:32:34.152 -> 311
08:32:34.152 -> 310
08:32:34.152 -> 337
08:32:34.152 -> 371
08:32:34.152 -> 390
08:32:34.152 -> 382
08:32:34.152 -> 364
08:32:34.192 -> 344
08:32:34.192 -> 312
08:32:34.192 -> 270
08:32:34.192 -> 271
08:32:34.192 -> 301
08:32:34.192 -> 308
08:32:34.192 -> 308
08:32:34.192 -> 320
08:32:34.232 -> 323
08:32:34.232 -> 312
08:32:34.232 -> 312
08:32:34.232 -> 324
08:32:34.232 -> 324
08:32:34.232 -> 313
08:32:34.232 -> 316
08:32:34.232 -> 328
08:32:34.272 -> 326
08:32:34.272 -> 316
08:32:34.272 -> 319
08:32:34.272 -> 331
08:32:34.272 -> 328
08:32:34.272 -> 320
08:32:34.272 -> 323
08:32:34.272 -> 335
08:32:34.312 -> 330
08:32:34.312 -> 321
08:32:34.312 -> 328
08:32:34.312 -> 338
08:32:34.312 -> 332
08:32:34.312 -> 324
08:32:34.312 -> 332
08:32:34.352 -> 343
08:32:34.352 -> 336
08:32:34.352 -> 331
08:32:34.352 -> 342
08:32:34.352 -> 351
08:32:34.352 -> 345
08:32:34.352 -> 342
08:32:34.352 -> 353
08:32:34.392 -> 362
08:32:34.392 -> 354
08:32:34.392 -> 352
08:32:34.392 -> 365
08:32:34.392 -> 369
08:32:34.392 -> 360
08:32:34.392 -> 357
08:32:34.432 -> 367
08:32:34.432 -> 368
08:32:34.432 -> 354
08:32:34.432 -> 348
08:32:34.432 -> 353
08:32:34.432 -> 329
08:32:34.432 -> 323
08:32:34.432 -> 330
08:32:34.472 -> 324
08:32:34.472 -> 308
08:32:34.472 -> 307
08:32:34.472 -> 317
08:32:34.472 -> 314
08:32:34.472 -> 301
08:32:34.472 -> 304
08:32:34.472 -> 315
08:32:34.512 -> 310
08:32:34.512 -> 300
08:32:34.512 -> 305
08:32:34.512 -> 315
08:32:34.512 -> 309
08:32:34.512 -> 300
08:32:34.512 -> 306
08:32:34.552 -> 316
08:32:34.552 -> 307
08:32:34.552 -> 300
08:32:34.552 -> 307
08:32:34.552 -> 316
08:32:34.552 -> 307
08:32:34.552 -> 300
08:32:34.552 -> 310
08:32:34.592 -> 319
08:32:34.592 -> 309
08:32:34.592 -> 304
08:32:34.592 -> 315
08:32:34.592 -> 319
08:32:34.592 -> 308
08:32:34.592 -> 304
08:32:34.592 -> 314
08:32:34.632 -> 316
08:32:34.632 -> 306
08:32:34.632 -> 304
08:32:34.632 -> 315
08:32:34.632 -> 317
08:32:34.632 -> 305
08:32:34.632 -> 304
08:32:34.632 -> 317
08:32:34.672 -> 316
08:32:34.672 -> 304
08:32:34.672 -> 306
08:32:34.672 -> 318
08:32:34.672 -> 316
08:32:34.672 -> 305
08:32:34.672 -> 308
08:32:34.712 -> 320
08:32:34.712 -> 315
08:32:34.712 -> 304
08:32:34.712 -> 309
08:32:34.712 -> 319
08:32:34.712 -> 314
08:32:34.712 -> 305
08:32:34.712 -> 313
08:32:34.752 -> 322
08:32:34.752 -> 317
08:32:34.752 -> 308
08:32:34.752 -> 315
08:32:34.752 -> 324
08:32:34.752 -> 315
08:32:34.752 -> 309
08:32:34.752 -> 324
08:32:34.791 -> 314
08:32:34.791 -> 309
08:32:34.791 -> 319
08:32:34.791 -> 324
08:32:34.791 -> 312
08:32:34.791 -> 308
08:32:34.791 -> 319
08:32:34.791 -> 323
08:32:34.832 -> 312
08:32:34.832 -> 309
08:32:34.832 -> 321
08:32:34.832 -> 324
08:32:34.832 -> 314
08:32:34.832 -> 314
08:32:34.832 -> 325
08:32:34.872 -> 326
08:32:34.872 -> 318
08:32:34.872 -> 319
08:32:34.872 -> 330
08:32:34.872 -> 329
08:32:34.872 -> 322
08:32:34.872 -> 325
08:32:34.872 -> 334
08:32:34.912 -> 332
08:32:34.912 -> 325
08:32:34.912 -> 334
08:32:34.912 -> 348
08:32:34.912 -> 339
08:32:34.912 -> 323
08:32:34.912 -> 323
08:32:34.951 -> 327
08:32:34.951 -> 319
08:32:34.951 -> 310
08:32:34.951 -> 317
08:32:34.951 -> 327
08:32:34.951 -> 319
08:32:34.951 -> 312
08:32:34.951 -> 320
08:32:34.991 -> 326
08:32:34.991 -> 316
08:32:34.991 -> 309
08:32:34.991 -> 320
08:32:34.991 -> 325
08:32:34.991 -> 318
08:32:34.991 -> 325
08:32:35.031 -> 360
08:32:35.031 -> 394
08:32:35.031 -> 400
08:32:35.031 -> 373
08:32:35.031 -> 355
08:32:35.031 -> 339
08:32:35.031 -> 297
08:32:35.031 -> 266
08:32:35.071 -> 293
08:32:35.071 -> 319
08:32:35.071 -> 315
08:32:35.071 -> 316
08:32:35.071 -> 330
08:32:35.071 -> 330
08:32:35.071 -> 319
08:32:35.071 -> 320
08:32:35.111 -> 331
08:32:35.111 -> 330
08:32:35.111 -> 322
08:32:35.111 -> 335
08:32:35.111 -> 331
08:32:35.111 -> 322
08:32:35.111 -> 327
08:32:35.111 -> 338
08:32:35.151 -> 332
08:32:35.151 -> 323
08:32:35.151 -> 332
08:32:35.151 -> 342
08:32:35.151 -> 335
08:32:35.151 -> 327
08:32:35.151 -> 335
08:32:35.151 -> 344
08:32:35.191 -> 335
08:32:35.191 -> 329
08:32:35.191 -> 341
08:32:35.191 -> 349
08:32:35.191 -> 341
08:32:35.191 -> 339
08:32:35.191 -> 351
08:32:35.231 -> 358
08:32:35.231 -> 351
08:32:35.231 -> 349
08:32:35.231 -> 362
08:32:35.231 -> 368
08:32:35.231 -> 359
08:32:35.231 -> 358
08:32:35.231 -> 371
08:32:35.271 -> 374
08:32:35.271 -> 363
08:32:35.271 -> 362
08:32:35.271 -> 372
08:32:35.271 -> 370
08:32:35.271 -> 354
08:32:35.271 -> 350
08:32:35.271 -> 355
08:32:35.311 -> 346
08:32:35.311 -> 328
08:32:35.311 -> 326
08:32:35.311 -> 332
08:32:35.311 -> 324
08:32:35.311 -> 309
08:32:35.311 -> 312
08:32:35.311 -> 321
08:32:35.351 -> 313
08:32:35.351 -> 303
08:32:35.351 -> 309
08:32:35.351 -> 318
08:32:35.351 -> 311
08:32:35.351 -> 302
08:32:35.351 -> 309
08:32:35.391 -> 317
08:32:35.391 -> 309
08:32:35.391 -> 301
08:32:35.391 -> 310
08:32:35.391 -> 317
08:32:35.391 -> 307
08:32:35.391 -> 301
08:32:35.391 -> 312
08:32:35.431 -> 317
08:32:35.431 -> 306
08:32:35.431 -> 303
08:32:35.431 -> 315
08:32:35.431 -> 308
08:32:35.431 -> 305
08:32:35.431 -> 317
08:32:35.471 -> 320
08:32:35.471 -> 309
08:32:35.471 -> 307
08:32:35.471 -> 318
08:32:35.471 -> 317
08:32:35.471 -> 305
08:32:35.471 -> 306
08:32:35.471 -> 318
08:32:35.511 -> 316
08:32:35.511 -> 304
08:32:35.511 -> 307
08:32:35.511 -> 318
08:32:35.511 -> 316
08:32:35.511 -> 304
08:32:35.511 -> 308
08:32:35.551 -> 319
08:32:35.551 -> 314
08:32:35.551 -> 306
08:32:35.551 -> 311
08:32:35.551 -> 320
08:32:35.551 -> 313
08:32:35.551 -> 305
08:32:35.551 -> 312
08:32:35.591 -> 320
08:32:35.591 -> 313
08:32:35.591 -> 305
08:32:35.591 -> 313
08:32:35.591 -> 320
08:32:35.591 -> 311
08:32:35.591 -> 305
08:32:35.591 -> 314
08:32:35.631 -> 320
08:32:35.631 -> 310
08:32:35.631 -> 305
08:32:35.631 -> 315
08:32:35.631 -> 320
08:32:35.631 -> 310
08:32:35.631 -> 306
08:32:35.631 -> 317
08:32:35.671 -> 321
08:32:35.671 -> 309
08:32:35.671 -> 307
08:32:35.671 -> 319
08:32:35.671 -> 320
08:32:35.671 -> 308
08:32:35.671 -> 308
08:32:35.671 -> 321
08:32:35.711 -> 320
08:32:35.711 -> 309
08:32:35.711 -> 312
08:32:35.711 -> 323
08:32:35.711 -> 320
08:32:35.711 -> 309
08:32:35.711 -> 312
08:32:35.751 -> 324
08:32:35.751 -> 323
08:32:35.751 -> 314
08:32:35.751 -> 318
08:32:35.751 -> 328
08:32:35.751 -> 325
08:32:35.751 -> 318
08:32:35.751 -> 333
08:32:35.791 -> 327
08:32:35.791 -> 322
08:32:35.791 -> 334
08:32:35.791 -> 343
08:32:35.791 -> 328
08:32:35.791 -> 315
08:32:35.791 -> 320
08:32:35.791 -> 323
08:32:35.831 -> 312
08:32:35.831 -> 306
08:32:35.831 -> 317
08:32:35.831 -> 322
08:32:35.831 -> 312
08:32:35.831 -> 307
08:32:35.831 -> 319
08:32:35.831 -> 322
08:32:35.871 -> 311
08:32:35.871 -> 308
08:32:35.871 -> 320
08:32:35.871 -> 322
08:32:35.871 -> 316
08:32:35.871 -> 333
08:32:35.871 -> 372
08:32:35.911 -> 401
08:32:35.911 -> 389
08:32:35.911 -> 362
08:32:35.911 -> 348
08:32:35.911 -> 325
08:32:35.911 -> 277
08:32:35.911 -> 267
08:32:35.911 -> 304
08:32:35.951 -> 318
08:32:35.951 -> 311
08:32:35.951 -> 315
08:32:35.951 -> 328
08:32:35.951 -> 322
08:32:35.951 -> 313
08:32:35.951 -> 319
08:32:35.991 -> 330
08:32:35.991 -> 325
08:32:35.991 -> 318
08:32:35.991 -> 324
08:32:35.991 -> 332
08:32:35.991 -> 325
08:32:35.991 -> 318
08:32:35.991 -> 327
08:32:36.031 -> 335
08:32:36.031 -> 327
08:32:36.031 -> 322
08:32:36.031 -> 332
08:32:36.031 -> 338
08:32:36.031 -> 328
08:32:36.031 -> 324
08:32:36.073 -> 335
08:32:36.073 -> 339
08:32:36.073 -> 330
08:32:36.073 -> 330
08:32:36.073 -> 342
08:32:36.073 -> 347
08:32:36.073 -> 337
08:32:36.073 -> 337
08:32:36.073 -> 349
08:32:36.113 -> 354
08:32:36.113 -> 349
08:32:36.113 -> 363
08:32:36.113 -> 364
08:32:36.113 -> 355
08:32:36.113 -> 358
08:32:36.113 -> 371
08:32:36.151 -> 370
08:32:36.151 -> 359
08:32:36.151 -> 361
08:32:36.151 -> 372
08:32:36.151 -> 365
08:32:36.151 -> 350
08:32:36.151 -> 349
08:32:36.151 -> 354
08:32:36.191 -> 342
08:32:36.191 -> 326
08:32:36.191 -> 327
08:32:36.191 -> 331
08:32:36.191 -> 319
08:32:36.191 -> 307
08:32:36.191 -> 313
08:32:36.231 -> 319
08:32:36.231 -> 308
08:32:36.231 -> 301
08:32:36.231 -> 310
08:32:36.231 -> 317
08:32:36.231 -> 307
08:32:36.231 -> 301
08:32:36.231 -> 312
08:32:36.271 -> 317
08:32:36.271 -> 306
08:32:36.271 -> 302
08:32:36.271 -> 312
08:32:36.271 -> 316
08:32:36.271 -> 305
08:32:36.271 -> 304
08:32:36.271 -> 315
08:32:36.311 -> 317
08:32:36.311 -> 307
08:32:36.311 -> 306
08:32:36.311 -> 318
08:32:36.311 -> 318
08:32:36.311 -> 306
08:32:36.311 -> 308
08:32:36.311 -> 321
08:32:36.351 -> 318
08:32:36.351 -> 306
08:32:36.351 -> 309
08:32:36.351 -> 320
08:32:36.351 -> 317
08:32:36.351 -> 307
08:32:36.351 -> 310
08:32:36.391 -> 321
08:32:36.391 -> 316
08:32:36.391 -> 306
08:32:36.391 -> 311
08:32:36.391 -> 322
08:32:36.391 -> 314
08:32:36.391 -> 305
08:32:36.391 -> 313
08:32:36.431 -> 322
08:32:36.431 -> 313
08:32:36.431 -> 305
08:32:36.431 -> 315
08:32:36.431 -> 313
08:32:36.431 -> 306
08:32:36.431 -> 316
08:32:36.471 -> 322
08:32:36.471 -> 313
08:32:36.471 -> 308
08:32:36.471 -> 319
08:32:36.471 -> 323
08:32:36.471 -> 312
08:32:36.471 -> 310
08:32:36.471 -> 320
08:32:36.511 -> 322
08:32:36.511 -> 311
08:32:36.511 -> 310
08:32:36.511 -> 321
08:32:36.511 -> 322
08:32:36.511 -> 311
08:32:36.511 -> 311
08:32:36.511 -> 323
08:32:36.551 -> 321
08:32:36.551 -> 309
08:32:36.551 -> 312
08:32:36.551 -> 323
08:32:36.551 -> 321
08:32:36.551 -> 311
08:32:36.551 -> 315
08:32:36.591 -> 326
08:32:36.591 -> 321
08:32:36.591 -> 312
08:32:36.591 -> 317
08:32:36.591 -> 327
08:32:36.591 -> 320
08:32:36.591 -> 312
08:32:36.591 -> 319
08:32:36.631 -> 327
08:32:36.631 -> 319
08:32:36.631 -> 312
08:32:36.631 -> 319
08:32:36.631 -> 327
08:32:36.631 -> 318
08:32:36.631 -> 311
08:32:36.631 -> 320
08:32:36.671 -> 327
08:32:36.671 -> 319
08:32:36.671 -> 317
08:32:36.671 -> 329
08:32:36.671 -> 331
08:32:36.671 -> 321
08:32:36.671 -> 320
08:32:36.671 -> 331
08:32:36.711 -> 334
08:32:36.711 -> 323
08:32:36.711 -> 324
08:32:36.711 -> 341
08:32:36.711 -> 345
08:32:36.711 -> 332
08:32:36.711 -> 326
08:32:36.751 -> 332
08:32:36.751 -> 326
08:32:36.751 -> 313
08:32:36.751 -> 313
08:32:36.751 -> 324
08:32:36.751 -> 322
08:32:36.751 -> 311
08:32:36.751 -> 325
08:32:36.791 -> 321
08:32:36.791 -> 310
08:32:36.791 -> 314
08:32:36.791 -> 325
08:32:36.791 -> 317
08:32:36.791 -> 312
08:32:36.791 -> 330
08:32:36.791 -> 364
08:32:36.831 -> 387
08:32:36.831 -> 398
08:32:36.831 -> 388
08:32:36.831 -> 366
08:32:36.831 -> 336
08:32:36.831 -> 298
08:32:36.831 -> 275
08:32:36.831 -> 294
08:32:36.871 -> 309
08:32:36.871 -> 312
08:32:36.871 -> 323
08:32:36.871 -> 331
08:32:36.871 -> 320
08:32:36.871 -> 315
08:32:36.871 -> 327
08:32:36.911 -> 331
08:32:36.911 -> 321
08:32:36.911 -> 319
08:32:36.911 -> 331
08:32:36.911 -> 333
08:32:36.911 -> 322
08:32:36.911 -> 321
08:32:36.911 -> 334
08:32:36.951 -> 335
08:32:36.951 -> 325
08:32:36.951 -> 325
08:32:36.951 -> 336
08:32:36.951 -> 336
08:32:36.951 -> 325
08:32:36.951 -> 329
08:32:36.991 -> 341
08:32:36.991 -> 337
08:32:36.991 -> 327
08:32:36.991 -> 332
08:32:36.991 -> 346
08:32:36.991 -> 343
08:32:36.991 -> 337
08:32:36.991 -> 344
08:32:37.031 -> 355
08:32:37.031 -> 351
08:32:37.031 -> 344
08:32:37.031 -> 354
08:32:37.031 -> 366
08:32:37.031 -> 360
08:32:37.031 -> 356
08:32:37.031 -> 366
08:32:37.071 -> 374
08:32:37.071 -> 365
08:32:37.071 -> 359
08:32:37.071 -> 368
08:32:37.071 -> 374
08:32:37.071 -> 362
08:32:37.071 -> 353
08:32:37.111 -> 359
08:32:37.111 -> 358
08:32:37.111 -> 331
08:32:37.111 -> 336
08:32:37.111 -> 333
08:32:37.111 -> 317
08:32:37.111 -> 310
08:32:37.111 -> 319
08:32:37.151 -> 318
08:32:37.151 -> 306
08:32:37.151 -> 305
08:32:37.151 -> 316
08:32:37.151 -> 314
08:32:37.151 -> 302
08:32:37.151 -> 304
08:32:37.151 -> 316
08:32:37.191 -> 313
08:32:37.191 -> 303
08:32:37.191 -> 305
08:32:37.191 -> 317
08:32:37.191 -> 311
08:32:37.191 -> 303
08:32:37.191 -> 308
08:32:37.191 -> 319
08:32:37.231 -> 313
08:32:37.231 -> 304
08:32:37.231 -> 310
08:32:37.231 -> 320
08:32:37.231 -> 312
08:32:37.231 -> 305
08:32:37.231 -> 314
08:32:37.271 -> 323
08:32:37.271 -> 313
08:32:37.271 -> 306
08:32:37.271 -> 315
08:32:37.271 -> 322
08:32:37.271 -> 313
08:32:37.271 -> 306
08:32:37.271 -> 316
08:32:37.311 -> 320
08:32:37.311 -> 310
08:32:37.311 -> 306
08:32:37.311 -> 316
08:32:37.311 -> 320
08:32:37.311 -> 308
08:32:37.311 -> 306
08:32:37.311 -> 318
08:32:37.351 -> 321
08:32:37.351 -> 310
08:32:37.351 -> 309
08:32:37.351 -> 320
08:32:37.351 -> 320
08:32:37.351 -> 308
08:32:37.351 -> 309
08:32:37.351 -> 320
08:32:37.391 -> 318
08:32:37.391 -> 309
08:32:37.391 -> 311
08:32:37.391 -> 323
08:32:37.391 -> 320
08:32:37.391 -> 309
08:32:37.391 -> 313
08:32:37.431 -> 324
08:32:37.431 -> 318
08:32:37.431 -> 308
08:32:37.431 -> 314
08:32:37.431 -> 316
08:32:37.431 -> 308
08:32:37.431 -> 316
08:32:37.431 -> 324
08:32:37.471 -> 316
08:32:37.471 -> 308
08:32:37.471 -> 318
08:32:37.471 -> 324
08:32:37.471 -> 315
08:32:37.471 -> 309
08:32:37.471 -> 320
08:32:37.511 -> 326
08:32:37.511 -> 315
08:32:37.511 -> 311
08:32:37.511 -> 322
08:32:37.511 -> 326
08:32:37.511 -> 316
08:32:37.511 -> 313
08:32:37.511 -> 324
08:32:37.551 -> 326
08:32:37.551 -> 315
08:32:37.551 -> 313
08:32:37.551 -> 325
08:32:37.551 -> 326
08:32:37.551 -> 315
08:32:37.551 -> 314
08:32:37.591 -> 325
08:32:37.591 -> 324
08:32:37.591 -> 314
08:32:37.591 -> 316
08:32:37.591 -> 327
08:32:37.591 -> 325
08:32:37.591 -> 317
08:32:37.591 -> 321
08:32:37.631 -> 332
08:32:37.631 -> 329
08:32:37.631 -> 321
08:32:37.631 -> 325
08:32:37.631 -> 335
08:32:37.631 -> 332
08:32:37.631 -> 327
08:32:37.631 -> 337
08:32:37.671 -> 348
08:32:37.671 -> 333
08:32:37.671 -> 320
08:32:37.671 -> 323
08:32:37.671 -> 327
08:32:37.671 -> 315
08:32:37.671 -> 307
08:32:37.671 -> 318
08:32:37.711 -> 326
08:32:37.711 -> 320
08:32:37.711 -> 317
08:32:37.711 -> 326
08:32:37.711 -> 330
08:32:37.711 -> 319
08:32:37.711 -> 314
08:32:37.711 -> 324
08:32:37.751 -> 328
08:32:37.751 -> 325
08:32:37.751 -> 342
08:32:37.751 -> 380
08:32:37.751 -> 414
08:32:37.751 -> 406
08:32:37.751 -> 363
08:32:37.791 -> 339
08:32:37.791 -> 287
08:32:37.791 -> 269
08:32:37.791 -> 305
08:32:37.791 -> 322
08:32:37.791 -> 313
08:32:37.791 -> 318
08:32:37.791 -> 330
08:32:37.831 -> 326
08:32:37.831 -> 314
08:32:37.831 -> 315
08:32:37.831 -> 325
08:32:37.831 -> 320
08:32:37.831 -> 311
08:32:37.831 -> 316
08:32:37.831 -> 324
08:32:37.871 -> 314
08:32:37.871 -> 304
08:32:37.871 -> 308
08:32:37.871 -> 308
08:32:37.871 -> 286
08:32:37.871 -> 284
08:32:37.871 -> 307
08:32:37.871 -> 325
08:32:37.911 -> 321
08:32:37.911 -> 317
08:32:37.911 -> 331
08:32:37.911 -> 338
08:32:37.911 -> 323
08:32:37.911 -> 315
08:32:37.911 -> 327
08:32:37.951 -> 337
08:32:37.951 -> 330
08:32:37.951 -> 334
08:32:37.951 -> 353
08:32:37.951 -> 362
08:32:37.951 -> 355
08:32:37.951 -> 358
08:32:37.951 -> 375
08:32:37.991 -> 377
08:32:37.991 -> 372
08:32:37.991 -> 380
08:32:37.991 -> 402
08:32:37.991 -> 413
08:32:37.991 -> 413
08:32:37.991 -> 420
08:32:38.031 -> 428
08:32:38.031 -> 422
08:32:38.031 -> 411
08:32:38.031 -> 409
08:32:38.031 -> 403
08:32:38.031 -> 385
08:32:38.031 -> 361
08:32:38.031 -> 355
08:32:38.073 -> 366
08:32:38.073 -> 345
08:32:38.073 -> 323
08:32:38.073 -> 325
08:32:38.073 -> 330
08:32:38.073 -> 315
08:32:38.073 -> 303
08:32:38.073 -> 310
08:32:38.113 -> 313
08:32:38.113 -> 291
08:32:38.113 -> 301
08:32:38.113 -> 302
08:32:38.113 -> 295
08:32:38.113 -> 306
08:32:38.113 -> 328
08:32:38.151 -> 337
08:32:38.151 -> 333
08:32:38.151 -> 336
08:32:38.151 -> 347
08:32:38.151 -> 344
08:32:38.151 -> 327
08:32:38.151 -> 321
08:32:38.151 -> 331
08:32:38.191 -> 329
08:32:38.191 -> 317
08:32:38.191 -> 319
08:32:38.191 -> 331
08:32:38.191 -> 329
08:32:38.191 -> 316
08:32:38.191 -> 317
08:32:38.191 -> 332
08:32:38.231 -> 336
08:32:38.231 -> 348
08:32:38.231 -> 428
08:32:38.231 -> 643
08:32:38.231 -> 643
08:32:38.231 -> 643
08:32:38.231 -> 643
08:32:38.271 -> 643
08:32:38.271 -> 643
08:32:38.271 -> 642
08:32:38.271 -> 642
08:32:38.271 -> 641
08:32:38.271 -> 627
08:32:38.271 -> 537
08:32:38.271 -> 475
08:32:38.311 -> 456
08:32:38.311 -> 430
08:32:38.311 -> 400
08:32:38.311 -> 383
08:32:38.311 -> 370
08:32:38.311 -> 351
08:32:38.311 -> 342
08:32:38.311 -> 350
08:32:38.351 -> 355
08:32:38.351 -> 343
08:32:38.351 -> 337
08:32:38.351 -> 351
08:32:38.351 -> 361
08:32:38.351 -> 359
08:32:38.351 -> 359
08:32:38.351 -> 368
08:32:38.391 -> 353
08:32:38.391 -> 286
08:32:38.391 -> 276
08:32:38.391 -> 316
08:32:38.391 -> 335
08:32:38.391 -> 312
08:32:38.391 -> 292
08:32:38.391 -> 293
08:32:38.431 -> 278
08:32:38.431 -> 251
08:32:38.431 -> 238
08:32:38.431 -> 234
08:32:38.431 -> 218
08:32:38.431 -> 217
08:32:38.431 -> 225
08:32:38.471 -> 217
08:32:38.471 -> 203
08:32:38.471 -> 210
08:32:38.471 -> 224
08:32:38.471 -> 221
08:32:38.471 -> 214
08:32:38.471 -> 226
08:32:38.471 -> 239
08:32:38.511 -> 230
08:32:38.511 -> 217
08:32:38.511 -> 218
08:32:38.511 -> 222
08:32:38.511 -> 211
08:32:38.511 -> 202
08:32:38.511 -> 212
08:32:38.551 -> 225
08:32:38.551 -> 223
08:32:38.551 -> 227
08:32:38.551 -> 230
08:32:38.551 -> 228
08:32:38.551 -> 217
08:32:38.551 -> 211
08:32:38.551 -> 219
08:32:38.591 -> 219
08:32:38.591 -> 208
08:32:38.591 -> 207
08:32:38.591 -> 222
08:32:38.591 -> 224
08:32:38.591 -> 215
08:32:38.591 -> 215
08:32:38.631 -> 229
08:32:38.631 -> 230
08:32:38.631 -> 220
08:32:38.631 -> 222
08:32:38.631 -> 235
08:32:38.631 -> 233
08:32:38.631 -> 231
08:32:38.631 -> 257
08:32:38.671 -> 295
08:32:38.671 -> 310
08:32:38.671 -> 288
08:32:38.671 -> 265
08:32:38.671 -> 253
08:32:38.671 -> 227
08:32:38.671 -> 190
08:32:38.671 -> 188
08:32:38.711 -> 222
08:32:38.711 -> 232
08:32:38.711 -> 226
08:32:38.711 -> 237
08:32:38.711 -> 249
08:32:38.711 -> 243
08:32:38.711 -> 237
08:32:38.711 -> 248
08:32:38.751 -> 259
08:32:38.751 -> 249
08:32:38.751 -> 244
08:32:38.751 -> 255
08:32:38.751 -> 262
08:32:38.751 -> 253
08:32:38.751 -> 262
08:32:38.791 -> 266
08:32:38.791 -> 256
08:32:38.791 -> 257
08:32:38.791 -> 276
08:32:38.791 -> 274
08:32:38.791 -> 256
08:32:38.791 -> 257
08:32:38.791 -> 276
08:32:38.831 -> 279
08:32:38.831 -> 271
08:32:38.831 -> 275
08:32:38.831 -> 289
08:32:38.831 -> 290
08:32:38.831 -> 282
08:32:38.831 -> 288
08:32:38.831 -> 303
08:32:38.871 -> 302
08:32:38.871 -> 295
08:32:38.871 -> 304
08:32:38.871 -> 320
08:32:38.871 -> 316
08:32:38.871 -> 306
08:32:38.871 -> 315
08:32:38.871 -> 329
08:32:38.911 -> 322
08:32:38.911 -> 317
08:32:38.911 -> 326
08:32:38.911 -> 324
08:32:38.911 -> 311
08:32:38.911 -> 304
08:32:38.911 -> 310
08:32:38.951 -> 312
08:32:38.951 -> 297
08:32:38.951 -> 285
08:32:38.951 -> 291
08:32:38.951 -> 293
08:32:38.951 -> 278
08:32:38.951 -> 269
08:32:38.951 -> 280
08:32:38.991 -> 282
08:32:38.991 -> 270
08:32:38.991 -> 267
08:32:38.991 -> 278
08:32:38.991 -> 284
08:32:38.991 -> 274
08:32:38.991 -> 272
08:32:38.991 -> 285
08:32:39.031 -> 292
08:32:39.031 -> 276
08:32:39.031 -> 269
08:32:39.031 -> 282
08:32:39.031 -> 284
08:32:39.031 -> 275
08:32:39.031 -> 277
08:32:39.071 -> 290
08:32:39.071 -> 288
08:32:39.071 -> 277
08:32:39.071 -> 282
08:32:39.071 -> 296
08:32:39.071 -> 292
08:32:39.071 -> 282
08:32:39.071 -> 288
08:32:39.111 -> 301
08:32:39.111 -> 286
08:32:39.111 -> 293
08:32:39.111 -> 303
08:32:39.111 -> 297
08:32:39.111 -> 289
08:32:39.111 -> 298
08:32:39.151 -> 312
08:32:39.151 -> 302
08:32:39.151 -> 285
08:32:39.151 -> 294
08:32:39.151 -> 306
08:32:39.151 -> 298
08:32:39.151 -> 291
08:32:39.151 -> 302
08:32:39.191 -> 312
08:32:39.191 -> 302
08:32:39.191 -> 298
08:32:39.191 -> 309
08:32:39.191 -> 312
08:32:39.191 -> 303
08:32:39.191 -> 299
08:32:39.191 -> 310
08:32:39.231 -> 312
08:32:39.231 -> 300
08:32:39.231 -> 303
08:32:39.231 -> 317
08:32:39.231 -> 309
08:32:39.231 -> 296
08:32:39.231 -> 299
08:32:39.231 -> 314
08:32:39.271 -> 314
08:32:39.271 -> 304
08:32:39.271 -> 308
08:32:39.271 -> 319
08:32:39.271 -> 316
08:32:39.271 -> 305
08:32:39.271 -> 308
08:32:39.311 -> 320
08:32:39.311 -> 319
08:32:39.311 -> 313
08:32:39.311 -> 319
08:32:39.311 -> 328
08:32:39.311 -> 324
08:32:39.311 -> 323
08:32:39.311 -> 330
08:32:39.351 -> 329
08:32:39.351 -> 320
08:32:39.351 -> 311
08:32:39.351 -> 317
08:32:39.351 -> 323
08:32:39.351 -> 312
08:32:39.351 -> 307
08:32:39.351 -> 317
08:32:39.391 -> 324
08:32:39.391 -> 314
08:32:39.391 -> 308
08:32:39.391 -> 319
08:32:39.391 -> 325
08:32:39.391 -> 314
08:32:39.391 -> 310
08:32:39.391 -> 322
08:32:39.431 -> 324
08:32:39.431 -> 314
08:32:39.431 -> 325
08:32:39.431 -> 375
08:32:39.431 -> 382
08:32:39.431 -> 373
08:32:39.431 -> 361
08:32:39.471 -> 337
08:32:39.471 -> 301
08:32:39.471 -> 273
08:32:39.471 -> 282
08:32:39.471 -> 302
08:32:39.471 -> 313
08:32:39.471 -> 321
08:32:39.471 -> 332
08:32:39.511 -> 329
08:32:39.511 -> 321
08:32:39.511 -> 330
08:32:39.511 -> 345
08:32:39.511 -> 331
08:32:39.511 -> 318
08:32:39.511 -> 329
08:32:39.511 -> 340
08:32:39.551 -> 332
08:32:39.551 -> 325
08:32:39.551 -> 336
08:32:39.551 -> 344
08:32:39.551 -> 336
08:32:39.551 -> 330
08:32:39.551 -> 339
08:32:39.591 -> 348
08:32:39.591 -> 338
08:32:39.591 -> 332
08:32:39.591 -> 344
08:32:39.591 -> 352
08:32:39.591 -> 346
08:32:39.591 -> 340
08:32:39.631 -> 346
08:32:39.631 -> 352
08:32:39.631 -> 344
08:32:39.631 -> 343
08:32:39.631 -> 359
08:32:39.631 -> 363
08:32:39.631 -> 354
08:32:39.631 -> 356
08:32:39.671 -> 372
08:32:39.671 -> 373
08:32:39.671 -> 362
08:32:39.671 -> 365
08:32:39.671 -> 379
08:32:39.671 -> 383
08:32:39.671 -> 370
08:32:39.671 -> 363
08:32:39.711 -> 373
08:32:39.711 -> 368
08:32:39.711 -> 355
08:32:39.711 -> 353
08:32:39.711 -> 357
08:32:39.711 -> 347
08:32:39.711 -> 333
08:32:39.711 -> 334
08:32:39.751 -> 338
08:32:39.751 -> 325
08:32:39.751 -> 312
08:32:39.751 -> 316
08:32:39.751 -> 323
08:32:39.751 -> 315
08:32:39.751 -> 317
08:32:39.751 -> 324
08:32:39.791 -> 317
08:32:39.791 -> 313
08:32:39.791 -> 313
08:32:39.791 -> 314
08:32:39.791 -> 305
08:32:39.791 -> 304
08:32:39.791 -> 317
08:32:39.831 -> 324
08:32:39.831 -> 314
08:32:39.831 -> 311
08:32:39.831 -> 322
08:32:39.831 -> 326
08:32:39.831 -> 314
08:32:39.831 -> 314
08:32:39.831 -> 327
08:32:39.871 -> 327
08:32:39.871 -> 314
08:32:39.871 -> 317
08:32:39.871 -> 332
08:32:39.871 -> 321
08:32:39.871 -> 308
08:32:39.871 -> 312
08:32:39.871 -> 325
08:32:39.911 -> 322
08:32:39.911 -> 312
08:32:39.911 -> 318
08:32:39.911 -> 329
08:32:39.911 -> 323
08:32:39.911 -> 313
08:32:39.911 -> 319
08:32:39.911 -> 330
08:32:39.951 -> 325
08:32:39.951 -> 315
08:32:39.951 -> 322
08:32:39.951 -> 333
08:32:39.951 -> 326
08:32:39.951 -> 317
08:32:39.951 -> 328
08:32:39.991 -> 336
08:32:39.991 -> 320
08:32:39.991 -> 313
08:32:39.991 -> 325
08:32:39.991 -> 333
08:32:39.991 -> 326
08:32:39.991 -> 322
08:32:39.991 -> 332
08:32:40.031 -> 337
08:32:40.031 -> 328
08:32:40.031 -> 327
08:32:40.031 -> 341
08:32:40.031 -> 343
08:32:40.031 -> 329
08:32:40.031 -> 323
08:32:40.077 -> 329
08:32:40.077 -> 328
08:32:40.077 -> 314
08:32:40.077 -> 314
08:32:40.077 -> 327
08:32:40.077 -> 326
08:32:40.077 -> 315
08:32:40.077 -> 316
08:32:40.077 -> 329
08:32:40.117 -> 314
08:32:40.117 -> 318
08:32:40.117 -> 330
08:32:40.117 -> 326
08:32:40.117 -> 314
08:32:40.117 -> 321
08:32:40.117 -> 346
08:32:40.117 -> 369
08:32:40.157 -> 386
08:32:40.157 -> 390
08:32:40.157 -> 376
08:32:40.157 -> 347
08:32:40.157 -> 317
08:32:40.157 -> 295
08:32:40.157 -> 281
08:32:40.157 -> 282
08:32:40.197 -> 302
08:32:40.197 -> 322
08:32:40.197 -> 329
08:32:40.197 -> 322
08:32:40.197 -> 319
08:32:40.197 -> 329
08:32:40.197 -> 335
08:32:40.237 -> 326
08:32:40.237 -> 323
08:32:40.237 -> 333
08:32:40.237 -> 337
08:32:40.237 -> 328
08:32:40.237 -> 325
08:32:40.237 -> 338
08:32:40.237 -> 342
08:32:40.277 -> 331
08:32:40.277 -> 330
08:32:40.277 -> 342
08:32:40.277 -> 344
08:32:40.277 -> 333
08:32:40.277 -> 334
08:32:40.277 -> 348
08:32:40.277 -> 348
08:32:40.317 -> 338
08:32:40.317 -> 341
08:32:40.317 -> 353
08:32:40.317 -> 352
08:32:40.317 -> 343
08:32:40.317 -> 348
08:32:40.317 -> 361
08:32:40.317 -> 358
08:32:40.357 -> 351
08:32:40.357 -> 359
08:32:40.357 -> 372
08:32:40.357 -> 368
08:32:40.357 -> 361
08:32:40.357 -> 369
08:32:40.357 -> 381
08:32:40.397 -> 379
08:32:40.397 -> 363
08:32:40.397 -> 365
08:32:40.397 -> 374
08:32:40.397 -> 364
08:32:40.397 -> 355
08:32:40.397 -> 360
08:32:40.397 -> 361
08:32:40.437 -> 345
08:32:40.437 -> 334
08:32:40.437 -> 339
08:32:40.437 -> 324
08:32:40.437 -> 316
08:32:40.437 -> 325
08:32:40.437 -> 327
08:32:40.477 -> 315
08:32:40.477 -> 313
08:32:40.477 -> 323
08:32:40.477 -> 324
08:32:40.477 -> 314
08:32:40.477 -> 315
08:32:40.477 -> 327
08:32:40.477 -> 324
08:32:40.517 -> 313
08:32:40.517 -> 315
08:32:40.517 -> 326
08:32:40.517 -> 323
08:32:40.517 -> 312
08:32:40.517 -> 315
08:32:40.517 -> 328
08:32:40.557 -> 324
08:32:40.557 -> 313
08:32:40.557 -> 316
08:32:40.557 -> 327
08:32:40.557 -> 321
08:32:40.557 -> 313
08:32:40.557 -> 320
08:32:40.557 -> 329
08:32:40.596 -> 322
08:32:40.596 -> 314
08:32:40.596 -> 322
08:32:40.596 -> 331
08:32:40.596 -> 323
08:32:40.596 -> 316
08:32:40.596 -> 325
08:32:40.596 -> 332
08:32:40.636 -> 322
08:32:40.636 -> 314
08:32:40.636 -> 324
08:32:40.636 -> 329
08:32:40.636 -> 319
08:32:40.636 -> 314
08:32:40.636 -> 325
08:32:40.636 -> 329
08:32:40.677 -> 317
08:32:40.677 -> 312
08:32:40.677 -> 323
08:32:40.677 -> 326
08:32:40.677 -> 314
08:32:40.677 -> 313
08:32:40.677 -> 324
08:32:40.677 -> 324
08:32:40.717 -> 312
08:32:40.717 -> 312
08:32:40.717 -> 324
08:32:40.717 -> 323
08:32:40.717 -> 311
08:32:40.717 -> 314
08:32:40.717 -> 326
08:32:40.756 -> 323
08:32:40.756 -> 312
08:32:40.756 -> 315
08:32:40.756 -> 327
08:32:40.756 -> 322
08:32:40.756 -> 317
08:32:40.756 -> 328
08:32:40.756 -> 325
08:32:40.796 -> 317
08:32:40.796 -> 320
08:32:40.796 -> 332
08:32:40.796 -> 326
08:32:40.796 -> 316
08:32:40.796 -> 324
08:32:40.796 -> 334
08:32:40.796 -> 327
08:32:40.836 -> 325
08:32:40.836 -> 337
08:32:40.836 -> 341
08:32:40.836 -> 325
08:32:40.836 -> 315
08:32:40.836 -> 323
08:32:40.836 -> 325
08:32:40.836 -> 313
08:32:40.876 -> 309
08:32:40.876 -> 321
08:32:40.876 -> 323
08:32:40.876 -> 312
08:32:40.876 -> 311
08:32:40.876 -> 323
08:32:40.876 -> 322
08:32:40.916 -> 311
08:32:40.916 -> 310
08:32:40.916 -> 322
08:32:40.916 -> 321
08:32:40.916 -> 314
08:32:40.916 -> 326
08:32:40.916 -> 361
08:32:40.916 -> 388
08:32:40.956 -> 386
08:32:40.956 -> 369
08:32:40.956 -> 357
08:32:40.956 -> 334
08:32:40.956 -> 293
08:32:40.956 -> 275
08:32:40.956 -> 303
08:32:40.996 -> 314
08:32:40.996 -> 308
08:32:40.996 -> 317
08:32:40.996 -> 328
08:32:40.996 -> 320
08:32:40.996 -> 311
08:32:40.996 -> 320
08:32:40.996 -> 329
08:32:41.036 -> 320
08:32:41.036 -> 313
08:32:41.036 -> 322
08:32:41.036 -> 330
08:32:41.036 -> 320
08:32:41.036 -> 315
08:32:41.036 -> 326
08:32:41.076 -> 333
08:32:41.076 -> 322
08:32:41.076 -> 318
08:32:41.076 -> 332
08:32:41.076 -> 335
08:32:41.076 -> 322
08:32:41.076 -> 321
08:32:41.076 -> 334
08:32:41.116 -> 326
08:32:41.116 -> 326
08:32:41.116 -> 340
08:32:41.116 -> 341
08:32:41.116 -> 330
08:32:41.116 -> 334
08:32:41.116 -> 347
08:32:41.116 -> 348
08:32:41.156 -> 340
08:32:41.156 -> 344
08:32:41.156 -> 359
08:32:41.156 -> 358
08:32:41.156 -> 349
08:32:41.156 -> 354
08:32:41.156 -> 366
08:32:41.156 -> 362
08:32:41.196 -> 351
08:32:41.196 -> 356
08:32:41.196 -> 364
08:32:41.196 -> 355
08:32:41.196 -> 344
08:32:41.196 -> 347
08:32:41.196 -> 351
08:32:41.196 -> 337
08:32:41.236 -> 323
08:32:41.236 -> 326
08:32:41.236 -> 329
08:32:41.236 -> 315
08:32:41.236 -> 306
08:32:41.236 -> 315
08:32:41.236 -> 319
08:32:41.276 -> 308
08:32:41.276 -> 304
08:32:41.276 -> 314
08:32:41.276 -> 318
08:32:41.276 -> 307
08:32:41.276 -> 304
08:32:41.276 -> 315
08:32:41.276 -> 317
08:32:41.316 -> 305
08:32:41.316 -> 304
08:32:41.316 -> 316
08:32:41.316 -> 316
08:32:41.316 -> 304
08:32:41.316 -> 305
08:32:41.316 -> 316
08:32:41.316 -> 315
08:32:41.356 -> 304
08:32:41.356 -> 305
08:32:41.356 -> 317
08:32:41.356 -> 315
08:32:41.356 -> 305
08:32:41.356 -> 308
08:32:41.356 -> 319
08:32:41.356 -> 315
08:32:41.396 -> 305
08:32:41.396 -> 311
08:32:41.396 -> 320
08:32:41.396 -> 315
08:32:41.396 -> 305
08:32:41.396 -> 312
08:32:41.396 -> 321
08:32:41.436 -> 312
08:32:41.436 -> 304
08:32:41.436 -> 320
08:32:41.436 -> 312
08:32:41.436 -> 305
08:32:41.436 -> 315
08:32:41.436 -> 322
08:32:41.436 -> 311
08:32:41.476 -> 306
08:32:41.476 -> 317
08:32:41.476 -> 320
08:32:41.476 -> 310
08:32:41.476 -> 306
08:32:41.476 -> 318
08:32:41.476 -> 321
08:32:41.516 -> 309
08:32:41.516 -> 307
08:32:41.516 -> 319
08:32:41.516 -> 321
08:32:41.516 -> 309
08:32:41.516 -> 308
08:32:41.516 -> 320
08:32:41.516 -> 319
08:32:41.556 -> 308
08:32:41.556 -> 310
08:32:41.556 -> 321
08:32:41.556 -> 319
08:32:41.556 -> 307
08:32:41.556 -> 311
08:32:41.556 -> 323
08:32:41.596 -> 319
08:32:41.596 -> 307
08:32:41.596 -> 311
08:32:41.596 -> 321
08:32:41.596 -> 317
08:32:41.596 -> 308
08:32:41.596 -> 314
08:32:41.596 -> 323
08:32:41.636 -> 316
08:32:41.636 -> 306
08:32:41.636 -> 314
08:32:41.636 -> 323
08:32:41.636 -> 316
08:32:41.636 -> 307
08:32:41.636 -> 317
08:32:41.636 -> 325
08:32:41.676 -> 316
08:32:41.676 -> 310
08:32:41.676 -> 319
08:32:41.676 -> 325
08:32:41.676 -> 316
08:32:41.676 -> 311
08:32:41.676 -> 321
08:32:41.676 -> 325
08:32:41.716 -> 313
08:32:41.716 -> 310
08:32:41.716 -> 321
08:32:41.716 -> 324
08:32:41.716 -> 312
08:32:41.716 -> 310
08:32:41.716 -> 322
08:32:41.756 -> 323
08:32:41.756 -> 312
08:32:41.756 -> 311
08:32:41.756 -> 324
08:32:41.756 -> 323
08:32:41.756 -> 315
08:32:41.756 -> 326
08:32:41.756 -> 324
08:32:41.796 -> 313
08:32:41.796 -> 316
08:32:41.796 -> 327
08:32:41.796 -> 324
08:32:41.796 -> 313
08:32:41.796 -> 318
08:32:41.796 -> 329
08:32:41.796 -> 322
08:32:41.836 -> 312
08:32:41.836 -> 319
08:32:41.836 -> 329
08:32:41.836 -> 321
08:32:41.836 -> 313
08:32:41.836 -> 321
08:32:41.836 -> 330
08:32:41.836 -> 321
08:32:41.876 -> 314
08:32:41.876 -> 323
08:32:41.876 -> 329
08:32:41.876 -> 320
08:32:41.876 -> 314
08:32:41.876 -> 326
08:32:41.876 -> 330
08:32:41.916 -> 319
08:32:41.916 -> 315
08:32:41.916 -> 328
08:32:41.916 -> 335
08:32:41.916 -> 323
08:32:41.916 -> 321
08:32:41.916 -> 334
08:32:41.916 -> 337
08:32:41.956 -> 328
08:32:41.956 -> 326
08:32:41.956 -> 339
08:32:41.956 -> 343
08:32:41.956 -> 335
08:32:41.956 -> 338
08:32:41.956 -> 347
08:32:41.956 -> 339
08:32:41.996 -> 323
08:32:41.996 -> 322
08:32:41.996 -> 330
08:32:41.996 -> 324
08:32:41.996 -> 313
08:32:41.996 -> 318
08:32:41.996 -> 329
08:32:42.036 -> 323
08:32:42.036 -> 313
08:32:42.036 -> 319
08:32:42.036 -> 329
08:32:42.036 -> 320
08:32:42.036 -> 309
08:32:42.036 -> 316
08:32:42.036 -> 328
08:32:42.078 -> 328
08:32:42.078 -> 340
08:32:42.078 -> 382
08:32:42.078 -> 417
08:32:42.078 -> 402
08:32:42.078 -> 372
08:32:42.078 -> 359
08:32:42.078 -> 286
08:32:42.118 -> 284
08:32:42.118 -> 312
08:32:42.118 -> 323
08:32:42.118 -> 316
08:32:42.118 -> 314
08:32:42.118 -> 324
08:32:42.118 -> 327
08:32:42.156 -> 315
08:32:42.156 -> 314
08:32:42.156 -> 326
08:32:42.156 -> 327
08:32:42.156 -> 316
08:32:42.156 -> 318
08:32:42.156 -> 330
08:32:42.156 -> 329
08:32:42.196 -> 319
08:32:42.196 -> 322
08:32:42.196 -> 334
08:32:42.196 -> 331
08:32:42.196 -> 321
08:32:42.196 -> 325
08:32:42.196 -> 337
08:32:42.196 -> 332
08:32:42.236 -> 322
08:32:42.236 -> 328
08:32:42.236 -> 340
08:32:42.236 -> 336
08:32:42.236 -> 329
08:32:42.236 -> 336
08:32:42.236 -> 347
08:32:42.276 -> 342
08:32:42.276 -> 335
08:32:42.276 -> 346
08:32:42.276 -> 357
08:32:42.276 -> 350
08:32:42.276 -> 346
08:32:42.276 -> 356
08:32:42.276 -> 364
08:32:42.316 -> 357
08:32:42.316 -> 353
08:32:42.316 -> 365
08:32:42.316 -> 372
08:32:42.316 -> 360
08:32:42.316 -> 355
08:32:42.316 -> 366
08:32:42.316 -> 368
08:32:42.356 -> 352
08:32:42.356 -> 345
08:32:42.356 -> 352
08:32:42.356 -> 348
08:32:42.356 -> 330
08:32:42.356 -> 324
08:32:42.356 -> 332
08:32:42.356 -> 327
08:32:42.396 -> 312
08:32:42.396 -> 312
08:32:42.396 -> 322
08:32:42.396 -> 318
08:32:42.396 -> 305
08:32:42.396 -> 308
08:32:42.396 -> 317
08:32:42.436 -> 313
08:32:42.436 -> 303
08:32:42.436 -> 318
08:32:42.436 -> 314
08:32:42.436 -> 303
08:32:42.436 -> 309
08:32:42.436 -> 319
08:32:42.436 -> 311
08:32:42.476 -> 302
08:32:42.476 -> 309
08:32:42.476 -> 318
08:32:42.476 -> 310
08:32:42.476 -> 303
08:32:42.476 -> 312
08:32:42.476 -> 320
08:32:42.516 -> 310
08:32:42.516 -> 304
08:32:42.516 -> 315
08:32:42.516 -> 320
08:32:42.516 -> 309
08:32:42.516 -> 305
08:32:42.516 -> 316
08:32:42.516 -> 318
08:32:42.556 -> 307
08:32:42.556 -> 304
08:32:42.556 -> 316
08:32:42.556 -> 319
08:32:42.556 -> 307
08:32:42.556 -> 305
08:32:42.556 -> 318
08:32:42.596 -> 319
08:32:42.596 -> 307
08:32:42.596 -> 310
08:32:42.596 -> 321
08:32:42.596 -> 319
08:32:42.596 -> 308
08:32:42.596 -> 311
08:32:42.596 -> 322
08:32:42.636 -> 320
08:32:42.636 -> 307
08:32:42.636 -> 311
08:32:42.636 -> 322
08:32:42.636 -> 317
08:32:42.636 -> 308
08:32:42.636 -> 313
08:32:42.636 -> 323
08:32:42.676 -> 317
08:32:42.676 -> 307
08:32:42.676 -> 313
08:32:42.676 -> 323
08:32:42.676 -> 315
08:32:42.676 -> 307
08:32:42.676 -> 316
08:32:42.676 -> 323
08:32:42.716 -> 314
08:32:42.716 -> 307
08:32:42.716 -> 317
08:32:42.716 -> 322
08:32:42.716 -> 312
08:32:42.716 -> 307
08:32:42.716 -> 318
08:32:42.716 -> 323
08:32:42.756 -> 312
08:32:42.756 -> 309
08:32:42.756 -> 321
08:32:42.756 -> 324
08:32:42.756 -> 311
08:32:42.756 -> 322
08:32:42.756 -> 323
08:32:42.796 -> 312
08:32:42.796 -> 312
08:32:42.796 -> 324
08:32:42.796 -> 324
08:32:42.796 -> 311
08:32:42.796 -> 314
08:32:42.796 -> 326
08:32:42.796 -> 323
08:32:42.836 -> 310
08:32:42.836 -> 314
08:32:42.836 -> 325
08:32:42.836 -> 321
08:32:42.836 -> 310
08:32:42.836 -> 314
08:32:42.836 -> 326
08:32:42.836 -> 319
08:32:42.876 -> 310
08:32:42.876 -> 315
08:32:42.876 -> 326
08:32:42.876 -> 318
08:32:42.876 -> 309
08:32:42.876 -> 317
08:32:42.876 -> 326
08:32:42.876 -> 318
08:32:42.916 -> 310
08:32:42.916 -> 319
08:32:42.916 -> 326
08:32:42.916 -> 317
08:32:42.916 -> 311
08:32:42.916 -> 321
08:32:42.916 -> 327
08:32:42.956 -> 316
08:32:42.956 -> 311
08:32:42.956 -> 323
08:32:42.956 -> 327
08:32:42.956 -> 316
08:32:42.956 -> 314
08:32:42.956 -> 327
08:32:42.956 -> 334
08:32:42.996 -> 325
08:32:42.996 -> 325
08:32:42.996 -> 338
08:32:42.996 -> 340
08:32:42.996 -> 328
08:32:42.996 -> 330
08:32:42.996 -> 344
08:32:43.036 -> 342
08:32:43.036 -> 329
08:32:43.036 -> 329
08:32:43.036 -> 338
08:32:43.036 -> 329
08:32:43.036 -> 312
08:32:43.036 -> 314
08:32:43.036 -> 324
08:32:43.076 -> 319
08:32:43.076 -> 310
08:32:43.076 -> 315
08:32:43.076 -> 325
08:32:43.076 -> 318
08:32:43.076 -> 310
08:32:43.076 -> 316
08:32:43.116 -> 314
08:32:43.116 -> 311
08:32:43.116 -> 334
08:32:43.116 -> 368
08:32:43.116 -> 394
08:32:43.116 -> 402
08:32:43.116 -> 393
08:32:43.116 -> 373
08:32:43.156 -> 338
08:32:43.156 -> 297
08:32:43.156 -> 282
08:32:43.156 -> 303
08:32:43.156 -> 308
08:32:43.156 -> 309
08:32:43.156 -> 323
08:32:43.156 -> 326
08:32:43.196 -> 313
08:32:43.196 -> 312
08:32:43.196 -> 325
08:32:43.196 -> 327
08:32:43.196 -> 316
08:32:43.196 -> 316
08:32:43.196 -> 328
08:32:43.196 -> 327
08:32:43.236 -> 317
08:32:43.236 -> 320
08:32:43.236 -> 332
08:32:43.236 -> 330
08:32:43.236 -> 320
08:32:43.236 -> 324
08:32:43.236 -> 335
08:32:43.276 -> 331
08:32:43.276 -> 320
08:32:43.276 -> 325
08:32:43.276 -> 338
08:32:43.276 -> 333
08:32:43.276 -> 324
08:32:43.276 -> 332
08:32:43.276 -> 343
08:32:43.316 -> 336
08:32:43.316 -> 330
08:32:43.316 -> 340
08:32:43.316 -> 350
08:32:43.316 -> 343
08:32:43.316 -> 340
08:32:43.316 -> 351
08:32:43.316 -> 362
08:32:43.356 -> 355
08:32:43.356 -> 352
08:32:43.356 -> 363
08:32:43.356 -> 371
08:32:43.356 -> 361
08:32:43.356 -> 356
08:32:43.356 -> 367
08:32:43.356 -> 370
08:32:43.396 -> 357
08:32:43.396 -> 350
08:32:43.396 -> 358
08:32:43.396 -> 354
08:32:43.396 -> 338
08:32:43.396 -> 330
08:32:43.396 -> 336
08:32:43.396 -> 332
08:32:43.436 -> 315
08:32:43.436 -> 319
08:32:43.436 -> 315
08:32:43.436 -> 302
08:32:43.436 -> 303
08:32:43.436 -> 313
08:32:43.436 -> 309
08:32:43.476 -> 298
08:32:43.476 -> 302
08:32:43.476 -> 312
08:32:43.476 -> 307
08:32:43.476 -> 297
08:32:43.476 -> 302
08:32:43.476 -> 314
08:32:43.476 -> 306
08:32:43.516 -> 297
08:32:43.516 -> 303
08:32:43.516 -> 313
08:32:43.516 -> 305
08:32:43.516 -> 298
08:32:43.516 -> 305
08:32:43.516 -> 314
08:32:43.556 -> 305
08:32:43.556 -> 299
08:32:43.556 -> 308
08:32:43.556 -> 316
08:32:43.556 -> 306
08:32:43.556 -> 301
08:32:43.556 -> 311
08:32:43.556 -> 316
08:32:43.596 -> 304
08:32:43.596 -> 301
08:32:43.596 -> 311
08:32:43.596 -> 315
08:32:43.596 -> 303
08:32:43.596 -> 300
08:32:43.596 -> 312
08:32:43.636 -> 313
08:32:43.636 -> 303
08:32:43.636 -> 304
08:32:43.636 -> 316
08:32:43.636 -> 314
08:32:43.636 -> 303
08:32:43.636 -> 305
08:32:43.636 -> 317
08:32:43.676 -> 314
08:32:43.676 -> 303
08:32:43.676 -> 305
08:32:43.676 -> 318
08:32:43.676 -> 313
08:32:43.676 -> 303
08:32:43.676 -> 308
08:32:43.676 -> 318
08:32:43.716 -> 312
08:32:43.716 -> 302
08:32:43.716 -> 309
08:32:43.716 -> 319
08:32:43.716 -> 311
08:32:43.716 -> 303
08:32:43.716 -> 310
08:32:43.716 -> 319
08:32:43.756 -> 311
08:32:43.756 -> 304
08:32:43.756 -> 313
08:32:43.756 -> 320
08:32:43.756 -> 305
08:32:43.756 -> 315
08:32:43.756 -> 320
08:32:43.796 -> 310
08:32:43.796 -> 306
08:32:43.796 -> 317
08:32:43.796 -> 322
08:32:43.796 -> 311
08:32:43.796 -> 308
08:32:43.796 -> 320
08:32:43.796 -> 322
08:32:43.836 -> 311
08:32:43.836 -> 309
08:32:43.836 -> 321
08:32:43.836 -> 321
08:32:43.836 -> 310
08:32:43.836 -> 313
08:32:43.836 -> 326
08:32:43.836 -> 323
08:32:43.876 -> 312
08:32:43.876 -> 313
08:32:43.876 -> 325
08:32:43.876 -> 320
08:32:43.876 -> 309
08:32:43.876 -> 314
08:32:43.876 -> 325
08:32:43.876 -> 319
08:32:43.916 -> 309
08:32:43.916 -> 316
08:32:43.916 -> 325
08:32:43.916 -> 319
08:32:43.916 -> 309
08:32:43.916 -> 316
08:32:43.916 -> 325
08:32:43.916 -> 318
08:32:43.956 -> 311
08:32:43.956 -> 319
08:32:43.956 -> 326
08:32:43.956 -> 318
08:32:43.956 -> 312
08:32:43.956 -> 321
08:32:43.956 -> 329
08:32:43.996 -> 320
08:32:43.996 -> 320
08:32:43.996 -> 334
08:32:43.996 -> 340
08:32:43.996 -> 331
08:32:43.996 -> 327
08:32:43.996 -> 338
08:32:43.996 -> 343
08:32:44.036 -> 335
08:32:44.036 -> 332
08:32:44.036 -> 341
08:32:44.036 -> 339
08:32:44.036 -> 324
08:32:44.036 -> 317
08:32:44.036 -> 324
08:32:44.078 -> 321
08:32:44.078 -> 310
08:32:44.078 -> 313
08:32:44.078 -> 325
08:32:44.078 -> 321
08:32:44.078 -> 310
08:32:44.078 -> 313
08:32:44.078 -> 319
08:32:44.118 -> 308
08:32:44.118 -> 315
08:32:44.118 -> 334
08:32:44.118 -> 347
08:32:44.118 -> 367
08:32:44.118 -> 405
08:32:44.118 -> 412
08:32:44.118 -> 377
08:32:44.156 -> 343
08:32:44.156 -> 325
08:32:44.156 -> 293
08:32:44.156 -> 278
08:32:44.156 -> 294
08:32:44.156 -> 316
08:32:44.156 -> 325
08:32:44.196 -> 317
08:32:44.196 -> 310
08:32:44.196 -> 321
08:32:44.196 -> 327
08:32:44.196 -> 316
08:32:44.196 -> 313
08:32:44.196 -> 325
08:32:44.196 -> 328
08:32:44.236 -> 319
08:32:44.236 -> 317
08:32:44.236 -> 329
08:32:44.236 -> 331
08:32:44.236 -> 320
08:32:44.236 -> 321
08:32:44.236 -> 333
08:32:44.236 -> 334
08:32:44.276 -> 322
08:32:44.276 -> 324
08:32:44.276 -> 338
08:32:44.276 -> 336
08:32:44.276 -> 325
08:32:44.276 -> 329
08:32:44.276 -> 342
08:32:44.316 -> 339
08:32:44.316 -> 329
08:32:44.316 -> 335
08:32:44.316 -> 349
08:32:44.316 -> 347
08:32:44.316 -> 338
08:32:44.316 -> 346
08:32:44.316 -> 359
08:32:44.356 -> 355
08:32:44.356 -> 350
08:32:44.356 -> 360
08:32:44.356 -> 371
08:32:44.356 -> 364
08:32:44.356 -> 357
08:32:44.356 -> 367
08:32:44.356 -> 375
08:32:44.396 -> 366
08:32:44.396 -> 358
08:32:44.396 -> 366
08:32:44.396 -> 369
08:32:44.396 -> 353
08:32:44.396 -> 342
08:32:44.396 -> 347
08:32:44.396 -> 345
08:32:44.436 -> 327
08:32:44.436 -> 325
08:32:44.436 -> 323
08:32:44.436 -> 310
08:32:44.436 -> 307
08:32:44.436 -> 318
08:32:44.436 -> 320
08:32:44.476 -> 307
08:32:44.476 -> 306
08:32:44.476 -> 317
08:32:44.476 -> 316
08:32:44.476 -> 305
08:32:44.476 -> 305
08:32:44.476 -> 317
08:32:44.476 -> 314
08:32:44.516 -> 302
08:32:44.516 -> 307
08:32:44.516 -> 318
08:32:44.516 -> 313
08:32:44.516 -> 303
08:32:44.516 -> 308
08:32:44.516 -> 319
08:32:44.516 -> 314
08:32:44.556 -> 305
08:32:44.556 -> 313
08:32:44.556 -> 322
08:32:44.556 -> 313
08:32:44.556 -> 305
08:32:44.556 -> 313
08:32:44.556 -> 321
08:32:44.596 -> 313
08:32:44.596 -> 305
08:32:44.596 -> 315
08:32:44.596 -> 322
08:32:44.596 -> 311
08:32:44.596 -> 306
08:32:44.596 -> 316
08:32:44.596 -> 321
08:32:44.636 -> 309
08:32:44.636 -> 305
08:32:44.636 -> 317
08:32:44.636 -> 321
08:32:44.636 -> 311
08:32:44.636 -> 308
08:32:44.636 -> 320
08:32:44.676 -> 321
08:32:44.676 -> 308
08:32:44.676 -> 307
08:32:44.676 -> 320
08:32:44.676 -> 320
08:32:44.676 -> 308
08:32:44.676 -> 311
08:32:44.676 -> 322
08:32:44.716 -> 320
08:32:44.716 -> 309
08:32:44.716 -> 311
08:32:44.716 -> 323
08:32:44.716 -> 319
08:32:44.716 -> 308
08:32:44.716 -> 313
08:32:44.716 -> 323
08:32:44.756 -> 317
08:32:44.756 -> 324
08:32:44.756 -> 363
08:32:44.756 -> 373
08:32:44.756 -> 335
08:32:44.756 -> 321
08:32:44.756 -> 318
08:32:44.756 -> 309
08:32:44.796 -> 304
08:32:44.796 -> 315
08:32:44.796 -> 322
08:32:44.796 -> 313
08:32:44.796 -> 307
08:32:44.796 -> 317
08:32:44.796 -> 323
08:32:44.836 -> 312
08:32:44.836 -> 308
08:32:44.836 -> 318
08:32:44.836 -> 324
08:32:44.836 -> 312
08:32:44.836 -> 308
08:32:44.836 -> 320
08:32:44.836 -> 323
08:32:44.876 -> 311
08:32:44.876 -> 310
08:32:44.876 -> 323
08:32:44.876 -> 323
08:32:44.876 -> 310
08:32:44.876 -> 311
08:32:44.876 -> 323
08:32:44.876 -> 322
08:32:44.916 -> 310
08:32:44.916 -> 311
08:32:44.916 -> 323
08:32:44.916 -> 321
08:32:44.916 -> 309
08:32:44.916 -> 313
08:32:44.916 -> 325
08:32:44.916 -> 320
08:32:44.956 -> 309
08:32:44.956 -> 315
08:32:44.956 -> 326
08:32:44.956 -> 320
08:32:44.956 -> 309
08:32:44.956 -> 317
08:32:44.956 -> 327
08:32:44.996 -> 319
08:32:44.996 -> 311
08:32:44.996 -> 320
08:32:44.996 -> 327
08:32:44.996 -> 319
08:32:44.996 -> 316
08:32:44.996 -> 330
08:32:44.996 -> 340
08:32:45.036 -> 330
08:32:45.036 -> 325
08:32:45.036 -> 336
08:32:45.036 -> 344
08:32:45.036 -> 335
08:32:45.036 -> 331
08:32:45.036 -> 341
08:32:45.036 -> 341
08:32:45.076 -> 328
08:32:45.076 -> 323
08:32:45.076 -> 328
08:32:45.076 -> 325
08:32:45.076 -> 311
08:32:45.076 -> 309
08:32:45.076 -> 321
08:32:45.116 -> 310
08:32:45.116 -> 311
08:32:45.116 -> 324
08:32:45.116 -> 321
08:32:45.116 -> 307
08:32:45.116 -> 308
08:32:45.116 -> 325
08:32:45.156 -> 335
08:32:45.156 -> 349
08:32:45.156 -> 388
08:32:45.156 -> 417
08:32:45.156 -> 392
08:32:45.156 -> 353
08:32:45.156 -> 336
08:32:45.156 -> 309
08:32:45.196 -> 273
08:32:45.196 -> 281
08:32:45.196 -> 309
08:32:45.196 -> 324
08:32:45.196 -> 316
08:32:45.196 -> 310
08:32:45.196 -> 318
08:32:45.196 -> 325
08:32:45.236 -> 315
08:32:45.236 -> 309
08:32:45.236 -> 320
08:32:45.236 -> 327
08:32:45.236 -> 316
08:32:45.236 -> 313
08:32:45.236 -> 324
08:32:45.236 -> 328
08:32:45.276 -> 318
08:32:45.276 -> 315
08:32:45.276 -> 327
08:32:45.276 -> 331
08:32:45.276 -> 321
08:32:45.276 -> 320
08:32:45.276 -> 333
08:32:45.276 -> 334
08:32:45.316 -> 323
08:32:45.316 -> 323
08:32:45.316 -> 336
08:32:45.316 -> 336
08:32:45.316 -> 326
08:32:45.316 -> 331
08:32:45.316 -> 344
08:32:45.356 -> 343
08:32:45.356 -> 334
08:32:45.356 -> 340
08:32:45.356 -> 354
08:32:45.356 -> 351
08:32:45.356 -> 343
08:32:45.356 -> 353
08:32:45.356 -> 366
08:32:45.396 -> 361
08:32:45.396 -> 353
08:32:45.396 -> 360
08:32:45.396 -> 372
08:32:45.396 -> 365
08:32:45.396 -> 355
08:32:45.396 -> 361
08:32:45.396 -> 367
08:32:45.436 -> 353
08:32:45.436 -> 343
08:32:45.436 -> 343
08:32:45.436 -> 326
08:32:45.436 -> 315
08:32:45.436 -> 321
08:32:45.436 -> 322
08:32:45.436 -> 307
08:32:45.476 -> 301
08:32:45.476 -> 311
08:32:45.476 -> 313
08:32:45.476 -> 301
08:32:45.476 -> 297
08:32:45.476 -> 308
08:32:45.476 -> 309
08:32:45.516 -> 297
08:32:45.516 -> 297
08:32:45.516 -> 310
08:32:45.516 -> 311
08:32:45.516 -> 297
08:32:45.516 -> 298
08:32:45.516 -> 310
08:32:45.516 -> 308
08:32:45.556 -> 297
08:32:45.556 -> 300
08:32:45.556 -> 311
08:32:45.556 -> 307
08:32:45.556 -> 297
08:32:45.556 -> 303
08:32:45.556 -> 314
08:32:45.556 -> 309
08:32:45.596 -> 298
08:32:45.596 -> 304
08:32:45.596 -> 315
08:32:45.596 -> 306
08:32:45.596 -> 297
08:32:45.596 -> 305
08:32:45.596 -> 314
08:32:45.636 -> 306
08:32:45.636 -> 298
08:32:45.636 -> 306
08:32:45.636 -> 314
08:32:45.636 -> 305
08:32:45.636 -> 299
08:32:45.636 -> 309
08:32:45.676 -> 315
08:32:45.676 -> 305
08:32:45.676 -> 302
08:32:45.676 -> 312
08:32:45.676 -> 316
08:32:45.676 -> 305
08:32:45.676 -> 302
08:32:45.676 -> 314
08:32:45.716 -> 318
08:32:45.716 -> 305
08:32:45.716 -> 303
08:32:45.716 -> 315
08:32:45.716 -> 315
08:32:45.716 -> 303
08:32:45.716 -> 303
08:32:45.716 -> 316
08:32:45.756 -> 315
08:32:45.756 -> 304
08:32:45.756 -> 306
08:32:45.756 -> 318
08:32:45.756 -> 303
08:32:45.756 -> 306
08:32:45.756 -> 318
08:32:45.756 -> 312
08:32:45.796 -> 302
08:32:45.796 -> 309
08:32:45.796 -> 319
08:32:45.796 -> 313
08:32:45.796 -> 304
08:32:45.796 -> 311
08:32:45.796 -> 321
08:32:45.836 -> 312
08:32:45.836 -> 305
08:32:45.836 -> 314
08:32:45.836 -> 322
08:32:45.836 -> 313
08:32:45.836 -> 308
08:32:45.836 -> 317
08:32:45.836 -> 325
08:32:45.876 -> 313
08:32:45.876 -> 307
08:32:45.876 -> 317
08:32:45.876 -> 324
08:32:45.876 -> 314
08:32:45.876 -> 309
08:32:45.876 -> 321
08:32:45.876 -> 324
08:32:45.916 -> 313
08:32:45.916 -> 311
08:32:45.916 -> 322
08:32:45.916 -> 323
08:32:45.916 -> 312
08:32:45.916 -> 312
08:32:45.916 -> 323
08:32:45.916 -> 321
08:32:45.956 -> 310
08:32:45.956 -> 311
08:32:45.956 -> 324
08:32:45.956 -> 325
08:32:45.956 -> 316
08:32:45.956 -> 319
08:32:45.956 -> 330
08:32:45.956 -> 329
08:32:45.996 -> 319
08:32:45.996 -> 322
08:32:45.996 -> 335
08:32:45.996 -> 333
08:32:45.996 -> 327
08:32:45.996 -> 337
08:32:45.996 -> 346
08:32:46.036 -> 334
08:32:46.036 -> 319
08:32:46.036 -> 320
08:32:46.036 -> 327
08:32:46.036 -> 317
08:32:46.036 -> 309
08:32:46.036 -> 319
08:32:46.036 -> 325
08:32:46.077 -> 316
08:32:46.077 -> 309
08:32:46.077 -> 321
08:32:46.077 -> 327
08:32:46.077 -> 316
08:32:46.077 -> 310
08:32:46.077 -> 323
08:32:46.117 -> 319
08:32:46.117 -> 332
08:32:46.117 -> 372
08:32:46.117 -> 409
08:32:46.117 -> 403
08:32:46.117 -> 375
08:32:46.117 -> 358
08:32:46.117 -> 335
08:32:46.156 -> 285
08:32:46.156 -> 266
08:32:46.156 -> 302
08:32:46.156 -> 320
08:32:46.156 -> 312
08:32:46.156 -> 315
08:32:46.156 -> 327
08:32:46.196 -> 324
08:32:46.196 -> 313
08:32:46.196 -> 319
08:32:46.196 -> 330
08:32:46.196 -> 325
08:32:46.196 -> 316
08:32:46.196 -> 321
08:32:46.196 -> 331
08:32:46.236 -> 326
08:32:46.236 -> 318
08:32:46.236 -> 325
08:32:46.236 -> 336
08:32:46.236 -> 328
08:32:46.236 -> 321
08:32:46.236 -> 330
08:32:46.236 -> 339
08:32:46.276 -> 330
08:32:46.276 -> 324
08:32:46.276 -> 334
08:32:46.276 -> 342
08:32:46.276 -> 333
08:32:46.276 -> 330
08:32:46.276 -> 341
08:32:46.276 -> 348
08:32:46.316 -> 338
08:32:46.316 -> 336
08:32:46.316 -> 351
08:32:46.316 -> 356
08:32:46.316 -> 347
08:32:46.316 -> 347
08:32:46.316 -> 362
08:32:46.356 -> 366
08:32:46.356 -> 357
08:32:46.356 -> 359
08:32:46.356 -> 372
08:32:46.356 -> 373
08:32:46.356 -> 362
08:32:46.356 -> 363
08:32:46.356 -> 373
08:32:46.396 -> 368
08:32:46.396 -> 354
08:32:46.396 -> 351
08:32:46.396 -> 357
08:32:46.396 -> 347
08:32:46.396 -> 330
08:32:46.396 -> 329
08:32:46.396 -> 333
08:32:46.436 -> 322
08:32:46.436 -> 312
08:32:46.436 -> 319
08:32:46.436 -> 311
08:32:46.436 -> 303
08:32:46.436 -> 312
08:32:46.436 -> 320
08:32:46.436 -> 311
08:32:46.476 -> 304
08:32:46.476 -> 314
08:32:46.476 -> 322
08:32:46.476 -> 312
08:32:46.476 -> 306
08:32:46.476 -> 317
08:32:46.476 -> 324
08:32:46.516 -> 312
08:32:46.516 -> 308
08:32:46.516 -> 319
08:32:46.516 -> 323
08:32:46.516 -> 312
08:32:46.516 -> 310
08:32:46.516 -> 322
08:32:46.516 -> 324
08:32:46.556 -> 313
08:32:46.556 -> 313
08:32:46.556 -> 325
08:32:46.556 -> 324
08:32:46.556 -> 313
08:32:46.556 -> 313
08:32:46.556 -> 326
08:32:46.556 -> 323
08:32:46.596 -> 310
08:32:46.596 -> 313
08:32:46.596 -> 325
08:32:46.596 -> 320
08:32:46.596 -> 310
08:32:46.596 -> 314
08:32:46.596 -> 326
08:32:46.636 -> 320
08:32:46.636 -> 309
08:32:46.636 -> 314
08:32:46.636 -> 325
08:32:46.636 -> 319
08:32:46.636 -> 309
08:32:46.636 -> 316
08:32:46.636 -> 326
08:32:46.676 -> 318
08:32:46.676 -> 310
08:32:46.676 -> 318
08:32:46.676 -> 325
08:32:46.676 -> 316
08:32:46.676 -> 309
08:32:46.676 -> 319
08:32:46.716 -> 325
08:32:46.716 -> 314
08:32:46.716 -> 308
08:32:46.716 -> 319
08:32:46.716 -> 324
08:32:46.716 -> 313
08:32:46.716 -> 309
08:32:46.716 -> 320
08:32:46.756 -> 323
08:32:46.756 -> 311
08:32:46.756 -> 308
08:32:46.756 -> 321
08:32:46.756 -> 311
08:32:46.756 -> 310
08:32:46.756 -> 322
08:32:46.756 -> 322
08:32:46.796 -> 311
08:32:46.796 -> 313
08:32:46.796 -> 325
08:32:46.796 -> 323
08:32:46.796 -> 312
08:32:46.796 -> 315
08:32:46.796 -> 327
08:32:46.796 -> 322
08:32:46.836 -> 311
08:32:46.836 -> 317
08:32:46.836 -> 327
08:32:46.836 -> 322
08:32:46.836 -> 312
08:32:46.836 -> 319
08:32:46.836 -> 328
08:32:46.876 -> 321
08:32:46.876 -> 312
08:32:46.876 -> 320
08:32:46.876 -> 329
08:32:46.876 -> 322
08:32:46.876 -> 317
08:32:46.876 -> 325
08:32:46.876 -> 332
08:32:46.916 -> 324
08:32:46.916 -> 320
08:32:46.916 -> 329
08:32:46.916 -> 336
08:32:46.916 -> 326
08:32:46.916 -> 326
08:32:46.916 -> 341
08:32:46.916 -> 345
08:32:46.956 -> 329
08:32:46.956 -> 321
08:32:46.956 -> 328
08:32:46.956 -> 325
08:32:46.956 -> 312
08:32:46.956 -> 310
08:32:46.956 -> 323
08:32:46.956 -> 323
08:32:46.996 -> 312
08:32:46.996 -> 313
08:32:46.996 -> 325
08:32:46.996 -> 322
08:32:46.996 -> 310
08:32:46.996 -> 312
08:32:46.996 -> 323
08:32:47.036 -> 318
08:32:47.036 -> 313
08:32:47.036 -> 333
08:32:47.036 -> 373
08:32:47.036 -> 402
08:32:47.036 -> 402
08:32:47.036 -> 384
08:32:47.036 -> 365
08:32:47.076 -> 333
08:32:47.076 -> 285
08:32:47.076 -> 269
08:32:47.076 -> 299
08:32:47.076 -> 312
08:32:47.076 -> 309
08:32:47.076 -> 329
08:32:47.076 -> 319
08:32:47.116 -> 311
08:32:47.116 -> 322
08:32:47.116 -> 328
08:32:47.116 -> 318
08:32:47.116 -> 314
08:32:47.116 -> 324
08:32:47.116 -> 330
08:32:47.156 -> 318
08:32:47.156 -> 316
08:32:47.156 -> 328
08:32:47.156 -> 331
08:32:47.156 -> 321
08:32:47.156 -> 319
08:32:47.156 -> 331
08:32:47.156 -> 333
08:32:47.196 -> 322
08:32:47.196 -> 323
08:32:47.196 -> 335
08:32:47.196 -> 335
08:32:47.196 -> 325
08:32:47.196 -> 328
08:32:47.196 -> 342
08:32:47.236 -> 340
08:32:47.236 -> 330
08:32:47.236 -> 335
08:32:47.236 -> 350
08:32:47.236 -> 348
08:32:47.236 -> 340
08:32:47.236 -> 348
08:32:47.236 -> 363
08:32:47.276 -> 361
08:32:47.276 -> 353
08:32:47.276 -> 361
08:32:47.276 -> 373
08:32:47.276 -> 366
08:32:47.276 -> 357
08:32:47.276 -> 365
08:32:47.276 -> 373
08:32:47.316 -> 362
08:32:47.316 -> 351
08:32:47.316 -> 355
08:32:47.316 -> 356
08:32:47.316 -> 340
08:32:47.316 -> 328
08:32:47.316 -> 330
08:32:47.316 -> 331
08:32:47.356 -> 314
08:32:47.356 -> 306
08:32:47.356 -> 315
08:32:47.356 -> 318
08:32:47.356 -> 304
08:32:47.356 -> 300
08:32:47.356 -> 310
08:32:47.396 -> 312
08:32:47.396 -> 300
08:32:47.396 -> 299
08:32:47.396 -> 311
08:32:47.396 -> 311
08:32:47.396 -> 300
08:32:47.396 -> 301
08:32:47.396 -> 313
08:32:47.436 -> 311
08:32:47.436 -> 304
08:32:47.436 -> 315
08:32:47.436 -> 312
08:32:47.436 -> 301
08:32:47.436 -> 306
08:32:47.436 -> 317
08:32:47.436 -> 312
08:32:47.476 -> 302
08:32:47.476 -> 309
08:32:47.476 -> 320
08:32:47.476 -> 312
08:32:47.476 -> 303
08:32:47.476 -> 310
08:32:47.476 -> 320
08:32:47.476 -> 312
08:32:47.516 -> 303
08:32:47.516 -> 311
08:32:47.516 -> 319
08:32:47.516 -> 310
08:32:47.516 -> 303
08:32:47.516 -> 314
08:32:47.516 -> 320
08:32:47.556 -> 309
08:32:47.556 -> 305
08:32:47.556 -> 316
08:32:47.556 -> 321
08:32:47.556 -> 309
08:32:47.556 -> 306
08:32:47.556 -> 318
08:32:47.556 -> 321
08:32:47.596 -> 310
08:32:47.596 -> 307
08:32:47.596 -> 319
08:32:47.596 -> 320
08:32:47.596 -> 308
08:32:47.596 -> 307
08:32:47.596 -> 320
08:32:47.596 -> 321
08:32:47.636 -> 309
08:32:47.636 -> 312
08:32:47.636 -> 324
08:32:47.636 -> 321
08:32:47.636 -> 309
08:32:47.636 -> 312
08:32:47.636 -> 324
08:32:47.676 -> 320
08:32:47.676 -> 309
08:32:47.676 -> 313
08:32:47.676 -> 324
08:32:47.676 -> 318
08:32:47.676 -> 308
08:32:47.676 -> 316
08:32:47.676 -> 326
08:32:47.716 -> 318
08:32:47.716 -> 309
08:32:47.716 -> 318
08:32:47.716 -> 327
08:32:47.716 -> 319
08:32:47.716 -> 310
08:32:47.716 -> 319
08:32:47.756 -> 328
08:32:47.756 -> 318
08:32:47.756 -> 311
08:32:47.756 -> 322
08:32:47.756 -> 318
08:32:47.756 -> 313
08:32:47.756 -> 324
08:32:47.756 -> 328
08:32:47.796 -> 318
08:32:47.796 -> 316
08:32:47.796 -> 330
08:32:47.796 -> 332
08:32:47.796 -> 318
08:32:47.796 -> 319
08:32:47.796 -> 333
08:32:47.796 -> 333
08:32:47.836 -> 321
08:32:47.836 -> 323
08:32:47.836 -> 337
08:32:47.836 -> 340
08:32:47.836 -> 331
08:32:47.836 -> 330
08:32:47.836 -> 336
08:32:47.876 -> 327
08:32:47.876 -> 313
08:32:47.876 -> 314
08:32:47.876 -> 325
08:32:47.876 -> 319
08:32:47.876 -> 310
08:32:47.876 -> 316
08:32:47.876 -> 327
08:32:47.916 -> 320
08:32:47.916 -> 310
08:32:47.916 -> 317
08:32:47.916 -> 325
08:32:47.916 -> 317
08:32:47.916 -> 307
