timestmp;smpleCnt;grnCnt;led2;led3;grn2Cnt;irCnt;redCnt;hr3;rr5;spo2
11:19:26.462275;53;170622;132150;131511;206829;524159;524159;60.0;0.0;0.0
11:19:26.472540;54;170175;132064;131453;206572;524159;524159;60.0;0.0;0.0
11:19:26.482443;55;169973;132048;131435;206485;524159;524159;60.0;0.0;0.0
11:19:26.482443;56;169915;132049;131439;206503;524159;524159;60.0;0.0;0.0
11:19:26.492595;57;169961;132081;131456;206626;524159;524159;60.0;0.0;0.0
11:19:26.662542;58;170002;132090;131454;206753;524159;524159;60.0;0.0;0.0
11:19:26.672391;59;169948;132063;131437;206812;524159;524159;60.0;0.0;0.0
11:19:26.682207;60;169866;132055;131414;206831;524159;524159;60.0;0.0;0.0
11:19:26.692331;61;169871;132049;131411;206895;524159;524159;60.0;0.0;0.0
11:19:26.697338;62;169982;132073;131423;207049;524159;524159;60.0;0.0;0.0
11:19:26.862167;63;170163;132101;131450;207269;524159;524159;60.0;0.0;0.0
11:19:26.872209;64;170378;132126;131457;207533;524159;524159;60.0;0.0;0.0
11:19:26.872209;65;170584;132151;131469;207792;524159;524159;60.0;0.0;0.0
11:19:26.882627;66;170796;132160;131476;208049;524159;524159;60.0;0.0;0.0
11:19:26.897544;67;170983;132176;131478;208297;524159;524159;60.0;0.0;0.0
11:19:27.062395;68;171173;132194;131483;208544;524159;524159;60.0;0.0;0.0
11:19:27.072435;69;171396;132214;131494;208803;524159;524159;60.0;0.0;0.0
11:19:27.072435;70;171648;132241;131512;209102;524159;524159;60.0;0.0;0.0
11:19:27.082313;71;171898;132277;131533;209398;524159;524159;60.0;0.0;0.0
11:19:27.092386;72;172160;132314;131559;209708;524159;524159;60.0;0.0;0.0
11:19:27.262452;73;172459;132356;131577;210030;524159;524159;60.0;0.0;0.0
11:19:27.272327;74;172753;132384;131589;210348;524159;524159;60.0;0.0;0.0
11:19:27.272327;75;172870;132340;131555;210496;524159;524159;60.0;0.0;0.0
11:19:27.282206;76;172486;132152;131425;210216;524159;524159;60.0;0.0;0.0
11:19:27.292372;77;171967;132017;131336;209804;524159;524159;60.0;0.0;0.0
11:19:27.464466;78;171680;132003;131331;209563;524159;524159;60.0;0.0;0.0
11:19:27.472492;79;171595;132034;131332;209488;524159;524159;60.0;0.0;0.0
11:19:27.472492;80;171662;132070;131362;209542;524159;524159;60.0;0.0;0.0
11:19:27.492557;81;171824;132107;131394;209681;524159;524159;60.0;0.0;0.0
11:19:27.492557;82;171864;132111;131386;209735;524159;524159;60.0;0.0;0.0
11:19:27.662115;83;171807;132078;131362;209717;524159;524159;60.0;0.0;0.0
11:19:27.672342;84;171780;132071;131369;209719;524159;524159;60.0;719.0;0.0
11:19:27.682197;85;171870;132107;131391;209820;524159;524159;60.0;0.0;0.0
11:19:27.687204;86;172035;132150;131408;209999;524159;524159;60.0;0.0;0.0
11:19:27.692244;87;172238;132206;131439;210192;524159;524159;60.0;0.0;0.0
11:19:27.872197;88;172462;132235;131456;210425;524159;524159;60.0;0.0;0.0
11:19:27.882268;89;172687;132265;131478;210658;524159;524159;59.0;0.0;0.0
11:19:27.892473;90;172912;132293;131481;210885;524159;524159;59.0;0.0;0.0
11:19:27.892473;91;173118;132318;131497;211114;524159;524159;59.0;0.0;0.0
11:19:27.902406;92;173339;132341;131517;211350;524159;524159;59.0;0.0;0.0
11:19:28.062856;93;173587;132380;131529;211601;524159;524159;59.0;0.0;0.0
11:19:28.072403;94;173856;132408;131537;211876;524159;524159;59.0;0.0;0.0
11:19:28.077409;95;174144;132433;131570;212165;524159;524159;59.0;0.0;0.0
11:19:28.082439;96;174439;132473;131595;212472;524159;524159;59.0;0.0;0.0
11:19:28.092307;97;174743;132510;131613;212780;524159;524159;59.0;0.0;0.0
11:19:28.267427;98;175052;132538;131620;213085;524159;524159;59.0;0.0;0.0
11:19:28.272481;99;175119;132465;131570;213171;524159;524159;59.0;0.0;0.0
11:19:28.277488;100;174637;132258;131405;212806;524159;524159;59.0;0.0;0.0
11:19:28.292591;101;174061;132125;131322;212330;524159;524159;59.0;0.0;0.0
11:19:28.292591;102;173728;132102;131306;212042;524159;524159;59.0;0.0;0.0
11:19:28.467121;103;173598;132114;131317;211913;524159;524159;59.0;0.0;0.0
11:19:28.472163;104;173597;132135;131330;211896;524159;524159;59.0;0.0;0.0
11:19:28.472163;105;173670;132163;131359;211947;524159;524159;59.0;0.0;0.0
11:19:28.487369;106;173703;132173;131360;211987;524159;524159;59.0;0.0;0.0
11:19:28.492405;107;173621;132151;131333;211935;524159;524159;59.0;0.0;0.0
11:19:28.662158;108;173546;132138;131323;211897;524159;524159;59.0;0.0;0.0
11:19:28.672339;109;173580;132164;131344;211948;524159;524159;59.0;0.0;0.0
11:19:28.672339;110;173714;132204;131364;212074;524159;524159;59.0;0.0;0.0
11:19:28.682394;111;173900;132244;131385;212252;524159;524159;59.0;1043.0;0.0
11:19:28.692572;112;174083;132281;131412;212420;524159;524159;59.0;0.0;0.0
11:19:28.862319;113;174291;132306;131430;212596;524159;524159;59.0;0.0;0.0
11:19:28.872520;114;174481;132322;131437;212789;524159;524159;59.0;0.0;0.0
11:19:28.882347;115;174671;132344;131446;212971;524159;524159;59.0;0.0;0.0
11:19:28.887355;116;174866;132369;131454;213164;524159;524159;59.0;0.0;0.0
11:19:28.892390;117;175087;132398;131474;213381;524159;524159;59.0;0.0;0.0
11:19:29.062254;118;175339;132419;131490;213624;524159;524159;59.0;0.0;0.0
11:19:29.072574;119;175602;132453;131509;213877;524159;524159;59.0;0.0;0.0
11:19:29.072574;120;175887;132485;131516;214154;524159;524159;59.0;0.0;0.0
11:19:29.082346;121;176167;132523;131547;214435;524159;524159;59.0;0.0;0.0
11:19:29.092322;122;176453;132551;131557;214710;524159;524159;59.0;0.0;0.0
11:19:29.262206;123;176742;132589;131574;215006;524159;524159;59.0;0.0;0.0
11:19:29.272402;124;177042;132616;131592;215301;524159;524159;59.0;0.0;0.0
11:19:29.282438;125;177245;132596;131575;215485;524159;524159;59.0;0.0;0.0
11:19:29.282438;126;176924;132410;131434;215244;524159;524159;59.0;0.0;0.0
11:19:29.292376;127;176267;132228;131310;214703;524159;524159;59.0;0.0;0.0
11:19:29.472530;128;175761;132172;131274;214257;524159;524159;59.0;0.0;0.0
11:19:29.482453;129;175513;132162;131286;214037;524159;524159;59.0;0.0;0.0
11:19:29.482453;130;175397;132183;131277;213903;524159;524159;59.0;0.0;0.0
11:19:29.492229;131;175415;132208;131301;213894;524159;524159;59.0;0.0;0.0
11:19:29.492229;132;175421;132220;131313;213865;524159;524159;59.0;0.0;0.0
11:19:29.662708;133;175346;132203;131294;213776;524159;524159;59.0;0.0;0.0
11:19:29.672434;134;175233;132181;131273;213637;524159;524159;59.0;947.1;0.0
11:19:29.682335;135;175204;132187;131285;213590;524159;524159;59.0;0.0;0.0
11:19:29.682335;136;175279;132216;131304;213622;524159;524159;59.0;0.0;0.0
11:19:29.692176;137;175404;132260;131330;213718;524159;524159;59.0;0.0;0.0
11:19:29.862233;138;175575;132283;131349;213869;524159;524159;59.0;0.0;0.0
11:19:29.872433;139;175749;132298;131354;214014;524159;524159;59.0;0.0;0.0
11:19:29.882364;140;175912;132320;131368;214147;524159;524159;59.0;0.0;0.0
11:19:29.882364;141;176081;132326;131378;214292;524159;524159;59.0;0.0;0.0
11:19:29.892352;142;176244;132341;131388;214446;524159;524159;59.0;0.0;0.0
11:19:30.067331;143;176433;132357;131397;214624;524159;524159;59.0;0.0;0.0
11:19:30.077377;144;176628;132378;131415;214811;524159;524159;60.0;0.0;0.0
11:19:30.092632;145;176835;132408;131428;215004;524159;524159;60.0;0.0;0.0
11:19:30.097141;146;177081;132440;131451;215228;524159;524159;60.0;0.0;0.0
11:19:30.097141;147;177330;132467;131475;215460;524159;524159;60.0;0.0;0.0
11:19:30.262308;148;177587;132496;131496;215701;524159;524159;60.0;0.0;0.0
11:19:30.272428;149;177841;132528;131511;215949;524159;524159;60.0;0.0;0.0
11:19:30.282159;150;178123;132547;131527;216217;524159;524159;60.0;0.0;0.0
11:19:30.292218;151;178389;132572;131532;216462;524159;524159;60.0;0.0;0.0
11:19:30.297224;152;178439;132492;131479;216506;524159;524159;60.0;0.0;0.0
11:19:30.462307;153;177939;132309;131338;216112;524159;524159;60.0;0.0;0.0
11:19:30.472351;154;177372;132189;131264;215655;524159;524159;61.0;0.0;0.0
11:19:30.482330;155;177029;132174;131254;215364;524159;524159;61.0;0.0;0.0
11:19:30.482330;156;176908;132178;131271;215245;524159;524159;61.0;0.0;0.0
11:19:30.492538;157;176923;132224;131298;215232;524159;524159;61.0;0.0;0.0
11:19:30.667138;158;177006;132252;131318;215295;524159;524159;61.0;957.4;0.0
11:19:30.676584;159;177004;132245;131307;215281;524159;524159;61.0;0.0;0.0
11:19:30.684583;160;176891;132213;131277;215183;524159;524159;61.0;0.0;0.0
11:19:30.691579;161;176800;132213;131280;215073;524159;524159;61.0;0.0;0.0
11:19:30.697572;162;176831;132237;131289;215069;524159;524159;61.0;0.0;0.0
11:19:30.867015;163;176945;132269;131317;215152;524159;524159;61.0;0.0;0.0
11:19:30.872537;164;177114;132303;131339;215296;524159;524159;61.0;0.0;0.0
11:19:30.882254;165;177290;132340;131357;215448;524159;524159;61.0;0.0;0.0
11:19:30.882254;166;177477;132361;131374;215601;524159;524159;61.0;0.0;0.0
11:19:30.892346;167;177626;132378;131383;215755;524159;524159;61.0;0.0;0.0
11:19:31.066710;168;177774;132398;131389;215892;524159;524159;61.0;0.0;0.0
11:19:31.072228;169;177947;132420;131396;216060;524159;524159;61.0;0.0;0.0
11:19:31.082496;170;178144;132441;131410;216259;524159;524159;61.0;0.0;0.0
11:19:31.082496;171;178375;132486;131434;216478;524159;524159;61.0;0.0;0.0
11:19:31.092371;172;178627;132519;131447;216732;524159;524159;61.0;0.0;0.0
11:19:31.272301;173;178878;132541;131456;216964;524159;524159;61.0;0.0;0.0
11:19:31.282146;174;178910;132478;131402;216999;524159;524159;61.0;0.0;0.0
11:19:31.282146;175;178492;132325;131294;216684;524159;524159;61.0;0.0;0.0
11:19:31.292299;176;178011;132243;131235;216298;524159;524159;61.0;0.0;0.0
11:19:31.297307;177;177744;132244;131252;216073;524159;524159;61.0;0.0;0.0
11:19:31.462193;178;177702;132299;131272;216032;524159;524159;61.0;0.0;0.0
11:19:31.482713;179;177815;132351;131314;216149;524159;524159;61.0;0.0;0.0
11:19:31.494705;180;177952;132373;131319;216257;524159;524159;61.0;0.0;0.0
11:19:31.498699;181;177956;132345;131299;216269;524159;524159;61.0;0.0;0.0
11:19:31.500782;182;177857;132335;131283;216197;524159;524159;61.0;0.0;0.0
11:19:31.662588;183;177845;132343;131282;216184;524159;524159;61.0;0.0;0.0
11:19:31.676598;184;177943;132378;131303;216264;524159;524159;61.0;0.0;0.0
11:19:31.684595;185;178137;132428;131330;216414;524159;524159;56.0;1055.8;0.0
11:19:31.691832;186;178368;132473;131347;216604;524159;524159;56.0;0.0;0.0
11:19:31.698826;187;178612;132496;131356;216813;524159;524159;56.0;0.0;0.0
11:19:31.862554;188;178836;132520;131365;216992;524159;524159;56.0;0.0;0.0
11:19:31.872609;189;179030;132534;131373;217154;524159;524159;56.0;0.0;0.0
11:19:31.882362;190;179259;132556;131380;217357;524159;524159;56.0;0.0;0.0
11:19:31.892432;191;179493;132580;131394;217579;524159;524159;56.0;0.0;0.0
11:19:31.892432;192;179698;132580;131392;217761;524159;524159;56.0;0.0;0.0
11:19:32.062482;193;179583;132477;131302;217665;524159;524159;56.0;0.0;0.0
11:19:32.082250;194;179141;132357;131211;217295;524159;524159;56.0;0.0;0.0
11:19:32.092304;195;178762;132296;131171;216955;524159;524159;56.0;0.0;0.0
11:19:32.092304;196;178605;132296;131164;216774;524159;524159;56.0;0.0;0.0
11:19:32.102431;197;178661;132324;131183;216766;524159;524159;56.0;0.0;0.0
11:19:32.266207;198;178846;132371;131229;216880;524159;524159;56.0;0.0;0.0
11:19:32.276291;199;178949;132377;131239;216933;524159;524159;56.0;0.0;0.0
11:19:32.284348;200;178873;132355;131217;216848;524159;524159;56.0;0.0;0.0
11:19:32.292419;201;178788;132346;131211;216757;524159;524159;56.0;0.0;0.0
11:19:32.296465;202;178815;132356;131231;216741;524159;524159;56.0;0.0;0.0
11:19:32.462562;203;178959;132402;131262;216826;524159;524159;56.0;0.0;0.0
11:19:32.477497;204;179128;132454;131297;216963;524159;524159;56.0;0.0;0.0
11:19:32.482538;205;179318;132497;131327;217121;524159;524159;56.0;0.0;0.0
11:19:32.492132;206;179483;132534;131342;217260;524159;524159;56.0;0.0;0.0
11:19:32.497137;207;179652;132557;131359;217410;524159;524159;56.0;0.0;0.0
11:19:32.662513;208;179824;132562;131373;217551;524159;524159;56.0;0.0;0.0
11:19:32.677238;209;179913;132543;131349;217616;524159;524159;56.0;0.0;0.0
11:19:32.682270;210;179586;132414;131258;217327;524159;524159;55.0;0.0;0.0
11:19:32.687277;211;179000;132310;131175;216805;524159;524159;55.0;0.0;0.0
11:19:32.697306;212;178571;132273;131171;216382;524159;524159;55.0;0.0;0.0
11:19:32.862097;213;178368;132282;131174;216132;524159;524159;55.0;0.0;0.0
11:19:32.877179;214;178329;132323;131202;216032;524159;524159;55.0;0.0;0.0
11:19:32.882209;215;178402;132367;131237;216038;524159;524159;55.0;0.0;0.0
11:19:32.882209;216;178390;132365;131245;215974;524159;524159;55.0;0.0;0.0
11:19:32.892515;217;178265;132345;131232;215835;524159;524159;55.0;0.0;0.0
11:19:33.066973;218;178156;132348;131225;215694;524159;524159;55.0;0.0;0.0
11:19:33.072001;219;178162;132364;131247;215653;524159;524159;55.0;0.0;0.0
11:19:33.085430;220;178243;132405;131272;215703;524159;524159;55.0;0.0;0.0
11:19:33.092426;221;178388;132440;131299;215800;524159;524159;55.0;0.0;0.0
11:19:33.099423;222;178556;132478;131320;215915;524159;524159;55.0;0.0;0.0
11:19:33.262369;223;178709;132510;131346;216022;524159;524159;55.0;0.0;0.0
11:19:33.272269;224;178882;132545;131362;216159;524159;524159;55.0;0.0;0.0
11:19:33.282294;225;179038;132551;131371;216283;524159;524159;55.0;0.0;0.0
11:19:33.292306;226;179109;132520;131343;216313;524159;524159;55.0;0.0;0.0
11:19:33.292306;227;178663;132361;131225;215882;524159;524159;55.0;0.0;0.0
11:19:33.462188;228;177887;132203;131119;215111;524159;524159;55.0;0.0;0.0
11:19:33.472261;229;177255;132135;131084;214444;524159;524159;55.0;0.0;0.0
11:19:33.481968;230;176833;132110;131079;213962;524159;524159;55.0;0.0;0.0
11:19:33.492378;231;176567;132130;131093;213620;524159;524159;55.0;0.0;0.0
11:19:33.492378;232;176458;132146;131110;213407;524159;524159;55.0;0.0;0.0
11:19:33.672127;233;176336;132146;131106;213200;524159;524159;55.0;879.4;0.0
11:19:33.677134;234;176151;132120;131088;212958;524159;524159;55.0;0.0;0.0
11:19:33.687201;235;175958;132106;131079;212707;524159;524159;55.0;0.0;0.0
11:19:33.692224;236;175849;132128;131097;212527;524159;524159;55.0;0.0;0.0
11:19:33.692224;237;175880;132156;131119;212472;524159;524159;55.0;0.0;0.0
11:19:33.872351;238;175960;132191;131136;212478;524159;524159;55.0;0.0;0.0
11:19:33.882371;239;176084;132209;131153;212531;524159;524159;55.0;0.0;0.0
11:19:33.882371;240;176205;132230;131160;212581;524159;524159;55.0;0.0;0.0
11:19:33.892483;241;176299;132250;131165;212642;524159;524159;55.0;0.0;0.0
11:19:33.902377;242;176400;132268;131178;212703;524159;524159;55.0;0.0;0.0
11:19:34.072110;243;176522;132288;131192;212789;524159;524159;55.0;0.0;0.0
11:19:34.082181;244;176659;132308;131203;212894;524159;524159;55.0;0.0;0.0
11:19:34.092235;245;176853;132328;131217;213063;524159;524159;55.0;0.0;0.0
11:19:34.092235;246;177046;132358;131239;213250;524159;524159;55.0;0.0;0.0
11:19:34.102125;247;177266;132387;131254;213448;524159;524159;55.0;0.0;0.0
11:19:34.272255;248;177483;132403;131274;213661;524159;524159;55.0;0.0;0.0
11:19:34.282368;249;177694;132428;131286;213873;524159;524159;55.0;0.0;0.0
11:19:34.282430;250;177920;132453;131296;214113;524159;524159;55.0;0.0;0.0
11:19:34.297355;251;178151;132472;131310;214361;524159;524159;55.0;744.0;0.0
11:19:34.302407;252;178389;132509;131321;214608;524159;524159;55.0;0.0;0.0
11:19:34.472419;253;178640;132548;131351;214882;524159;524159;55.0;0.0;0.0
11:19:34.477427;254;178908;132578;131369;215160;524159;524159;55.0;0.0;0.0
11:19:34.487466;255;179068;132546;131332;215313;524159;524159;55.0;0.0;0.0
11:19:34.492513;256;178564;132314;131173;214893;524159;524159;55.0;0.0;0.0
11:19:34.497520;257;177665;132113;131033;214111;524159;524159;55.0;0.0;0.0
11:19:34.672164;258;176935;132027;130980;213418;524159;524159;55.0;0.0;0.0
11:19:34.672164;259;176442;132000;130979;212901;524159;524159;55.0;0.0;0.0
11:19:34.682500;260;176057;131982;130956;212468;524159;524159;55.0;0.0;0.0
11:19:34.692308;261;175808;131991;130968;212151;524159;524159;55.0;0.0;0.0
11:19:34.692308;262;175635;131995;130977;211920;524159;524159;55.0;0.0;0.0
11:19:34.872262;263;175439;131981;130963;211674;524159;524159;55.0;0.0;0.0
11:19:34.882306;264;175219;131964;130952;211429;524159;524159;55.0;0.0;0.0
11:19:34.887318;265;175084;131974;130963;211242;524159;524159;55.0;0.0;0.0
11:19:34.892353;266;175061;132003;130980;211170;524159;524159;55.0;0.0;0.0
11:19:34.892353;267;175117;132036;130999;211166;524159;524159;55.0;0.0;0.0
11:19:35.072135;268;175219;132073;131025;211213;524159;524159;55.0;674.5;0.0
11:19:35.082411;269;175336;132098;131041;211291;524159;524159;55.0;0.0;0.0
11:19:35.092483;270;175425;132118;131053;211363;524159;524159;55.0;0.0;0.0
11:19:35.102258;271;175547;132145;131068;211474;524159;524159;55.0;0.0;0.0
11:19:35.102258;272;175685;132165;131080;211605;524159;524159;55.0;0.0;0.0
11:19:35.272444;273;175862;132196;131097;211770;524159;524159;55.0;0.0;0.0
11:19:35.282586;274;176059;132229;131117;211964;524159;524159;55.0;0.0;0.0
11:19:35.282586;275;176292;132272;131140;212176;524159;524159;55.0;0.0;0.0
11:19:35.292691;276;176537;132291;131159;212420;524159;524159;55.0;0.0;0.0
11:19:35.302577;277;176804;132328;131175;212680;524159;524159;55.0;0.0;0.0
11:19:35.472216;278;177061;132360;131192;212943;524159;524159;55.0;0.0;0.0
11:19:35.477226;279;177342;132393;131213;213232;524159;524159;55.0;0.0;0.0
11:19:35.482300;280;177629;132428;131228;213524;524159;524159;55.0;0.0;0.0
11:19:35.492602;281;177921;132458;131257;213828;524159;524159;55.0;0.0;0.0
11:19:35.502239;282;178219;132490;131268;214143;524159;524159;55.0;0.0;0.0
11:19:35.672108;283;178520;132529;131290;214464;524159;524159;55.0;0.0;0.0
11:19:35.677115;284;178785;132536;131296;214735;524159;524159;55.0;0.0;0.0
11:19:35.687183;285;178593;132365;131164;214610;524159;524159;55.0;691.6;0.0
11:19:35.702434;286;177964;132177;131028;214108;524159;524159;55.0;0.0;0.0
11:19:35.702434;287;177449;132087;130976;213668;524159;524159;55.0;0.0;0.0
11:19:35.872493;288;177153;132087;130968;213402;524159;524159;55.0;0.0;0.0
11:19:35.872493;289;176997;132080;130975;213253;524159;524159;55.0;0.0;0.0
11:19:35.882525;290;176946;132096;130979;213188;524159;524159;57.0;0.0;0.0
11:19:35.892615;291;176964;132125;131000;213204;524159;524159;57.0;0.0;0.0
11:19:35.902166;292;176926;132127;130992;213185;524159;524159;57.0;0.0;0.0
11:19:36.072350;293;176857;132113;130983;213127;524159;524159;57.0;0.0;0.0
11:19:36.082127;294;176832;132123;130989;213114;524159;524159;57.0;0.0;0.0
11:19:36.097089;295;176912;132160;131020;213205;524159;524159;59.0;0.0;0.0
11:19:36.102113;296;177073;132197;131033;213359;524159;524159;59.0;0.0;0.0
11:19:36.102113;297;177269;132218;131041;213541;524159;524159;59.0;0.0;0.0
11:19:36.272319;298;177479;132229;131046;213748;524159;524159;59.0;0.0;0.0
11:19:36.277326;299;177678;132255;131046;213952;524159;524159;59.0;0.0;0.0
11:19:36.282373;300;177893;132278;131060;214163;524159;524159;61.0;0.0;0.0
11:19:36.292357;301;178104;132299;131068;214387;524159;524159;61.0;0.0;0.0
11:19:36.302476;302;178324;132331;131092;214632;524159;524159;61.0;0.0;0.0
11:19:36.472224;303;178551;132390;131128;214897;524159;524159;61.0;0.0;0.0
11:19:36.482284;304;178791;132438;131175;215179;524159;524159;61.0;0.0;0.0
11:19:36.492192;305;179047;132485;131207;215470;524159;524159;63.0;0.0;0.0
11:19:36.502121;306;179320;132529;131243;215789;524159;524159;63.0;0.0;0.0
11:19:36.512294;307;179591;132564;131265;216098;524159;524159;63.0;0.0;0.0
11:19:36.672092;308;179877;132605;131292;216403;524159;524159;63.0;0.0;0.0
11:19:36.682289;309;180168;132646;131322;216721;524159;524159;63.0;0.0;0.0
11:19:36.687295;310;180473;132690;131339;217073;524159;524159;65.0;0.0;0.0
11:19:36.692321;311;180791;132718;131352;217423;524159;524159;65.0;0.0;0.0
11:19:36.702352;312;180988;132703;131338;217629;524159;524159;65.0;0.0;0.0
11:19:36.872565;313;180752;132523;131206;217483;524159;524159;65.0;0.0;0.0
11:19:36.882115;314;180292;132377;131103;217146;524159;524159;65.0;0.0;0.0
11:19:36.882115;315;180020;132346;131084;216964;524159;524159;66.0;1155.9;0.0
11:19:36.892482;316;179949;132367;131100;216938;524159;524159;66.0;0.0;0.0
11:19:36.902390;317;179976;132376;131118;216993;524159;524159;66.0;0.0;0.0
11:19:37.072531;318;180085;132423;131143;217133;524159;524159;66.0;0.0;0.0
11:19:37.082086;319;180183;132452;131161;217262;524159;524159;66.0;0.0;0.0
11:19:37.092145;320;180214;132431;131151;217359;524159;524159;67.0;0.0;0.0
11:19:37.092145;321;180214;132431;131145;217409;524159;524159;67.0;0.0;0.0
11:19:37.102390;322;180286;132455;131166;217532;524159;524159;67.0;0.0;0.0
11:19:37.272077;323;180423;132498;131192;217708;524159;524159;67.0;0.0;0.0
11:19:37.272077;324;180627;132553;131224;217954;524159;524159;67.0;0.0;0.0
11:19:37.282535;325;180858;132586;131251;218222;524159;524159;68.0;0.0;0.0
11:19:37.292452;326;181090;132614;131272;218489;524159;524159;68.0;0.0;0.0
11:19:37.302153;327;181301;132653;131291;218744;524159;524159;68.0;0.0;0.0
11:19:37.472393;328;181526;132679;131304;219010;524159;524159;68.0;0.0;0.0
11:19:37.492216;329;181740;132706;131327;219267;524159;524159;68.0;0.0;0.0
11:19:37.502521;330;181975;132737;131346;219548;524159;524159;69.0;0.0;0.0
11:19:37.502521;331;182229;132777;131377;219836;524159;524159;69.0;0.0;0.0
11:19:37.502521;332;182475;132812;131397;220136;524159;524159;69.0;0.0;0.0
11:19:37.672398;333;182752;132846;131420;220458;524159;524159;69.0;0.0;0.0
11:19:37.682567;334;183045;132872;131438;220759;524159;524159;69.0;0.0;0.0
11:19:37.682567;335;183325;132920;131464;221056;524159;524159;70.0;0.0;0.0
11:19:37.692444;336;183605;132959;131487;221371;524159;524159;70.0;0.0;0.0
11:19:37.702230;337;183894;132995;131515;221690;524159;524159;70.0;0.0;0.0
11:19:37.872297;338;184215;133025;131526;222029;524159;524159;70.0;0.0;0.0
11:19:37.882162;339;184430;133023;131524;222242;524159;524159;70.0;0.0;0.0
11:19:37.892471;340;184260;132872;131405;222131;524159;524159;70.0;0.0;0.0
11:19:37.892471;341;183883;132718;131298;221853;524159;524159;70.0;0.0;0.0
11:19:37.902405;342;183658;132687;131285;221733;524159;524159;70.0;0.0;0.0
11:19:38.072276;343;183617;132716;131308;221761;524159;524159;70.0;0.0;0.0
11:19:38.092366;344;183688;132740;131329;221869;524159;524159;70.0;1164.1;0.0
11:19:38.092366;345;183843;132783;131358;222045;524159;524159;71.0;0.0;0.0
11:19:38.102586;346;183983;132816;131381;222221;524159;524159;71.0;0.0;0.0
11:19:38.107592;347;184039;132810;131370;222332;524159;524159;71.0;0.0;0.0
11:19:38.272488;348;184046;132798;131367;222400;524159;524159;71.0;0.0;0.0
11:19:38.282433;349;184108;132820;131369;222513;524159;524159;71.0;0.0;0.0
11:19:38.282433;350;184254;132864;131411;222705;524159;524159;72.0;0.0;0.0
11:19:38.292386;351;184452;132905;131435;222935;524159;524159;72.0;0.0;0.0
11:19:38.302342;352;184679;132939;131469;223181;524159;524159;72.0;0.0;0.0
11:19:38.472497;353;184908;132983;131492;223430;524159;524159;72.0;0.0;0.0
11:19:38.482378;354;185139;133013;131514;223683;524159;524159;72.0;0.0;0.0
11:19:38.482378;355;185336;133037;131529;223912;524159;524159;73.0;0.0;0.0
11:19:38.492344;356;185544;133069;131542;224145;524159;524159;73.0;0.0;0.0
11:19:38.502263;357;185770;133092;131569;224392;524159;524159;73.0;0.0;0.0
11:19:38.672464;358;186016;133129;131588;224656;524159;524159;73.0;0.0;0.0
11:19:38.682550;359;186258;133159;131612;224929;524159;524159;73.0;0.0;0.0
11:19:38.682550;360;186530;133202;131642;225216;524159;524159;74.0;0.0;0.0
11:19:38.692554;361;186809;133233;131663;225502;524159;524159;74.0;0.0;0.0
11:19:38.702334;362;187083;133273;131693;225785;524159;524159;74.0;0.0;0.0
11:19:38.877504;363;187347;133310;131717;226067;524159;524159;74.0;0.0;0.0
11:19:38.882552;364;187637;133351;131734;226368;524159;524159;74.0;0.0;0.0
11:19:38.897318;365;187903;133368;131757;226645;524159;524159;75.0;0.0;0.0
11:19:38.902371;366;188127;133371;131756;226850;524159;524159;75.0;0.0;0.0
11:19:38.912396;367;187999;133229;131644;226731;524159;524159;75.0;0.0;0.0
11:19:39.077127;368;187641;133071;131531;226428;524159;524159;75.0;0.0;0.0
11:19:39.082165;369;187422;133031;131520;226273;524159;524159;75.0;0.0;0.0
11:19:39.092203;370;187402;133051;131534;226289;524159;524159;76.0;0.0;0.0
11:19:39.092203;371;187490;133084;131553;226384;524159;524159;76.0;1101.7;0.0
11:19:39.102549;372;187645;133126;131588;226538;524159;524159;76.0;0.0;0.0
11:19:39.272096;373;187803;133153;131619;226688;524159;524159;76.0;0.0;0.0
11:19:39.282100;374;187862;133142;131605;226762;524159;524159;76.0;0.0;0.0
11:19:39.292389;375;187880;133119;131594;226804;524159;524159;77.0;0.0;0.0
11:19:39.292389;376;187936;133129;131604;226872;524159;524159;77.0;0.0;0.0
11:19:39.302368;377;188062;133161;131636;227007;524159;524159;77.0;0.0;0.0
11:19:39.472400;378;188227;133196;131660;227195;524159;524159;77.0;0.0;0.0
11:19:39.482568;379;188423;133240;131690;227404;524159;524159;77.0;0.0;0.0
11:19:39.492119;380;188637;133265;131705;227622;524159;524159;77.0;0.0;0.0
11:19:39.502494;381;188838;133300;131733;227836;524159;524159;77.0;0.0;0.0
11:19:39.512382;382;189032;133323;131746;228039;524159;524159;77.0;0.0;0.0
11:19:39.672399;383;189215;133332;131754;228231;524159;524159;77.0;0.0;0.0
11:19:39.682117;384;189404;133367;131770;228419;524159;524159;77.0;0.0;0.0
11:19:39.692216;385;189582;133381;131787;228626;524159;524159;78.0;0.0;0.0
11:19:39.692216;386;189816;133414;131816;228877;524159;524159;78.0;0.0;0.0
11:19:39.702429;387;190043;133454;131829;229107;524159;524159;78.0;0.0;0.0
11:19:39.872390;388;190279;133477;131849;229356;524159;524159;78.0;0.0;0.0
11:19:39.882462;389;190532;133519;131881;229605;524159;524159;78.0;0.0;0.0
11:19:39.882462;390;190774;133550;131911;229854;524159;524159;78.0;0.0;0.0
11:19:39.892364;391;190988;133549;131908;230047;524159;524159;78.0;0.0;0.0
11:19:39.902389;392;190914;133438;131829;229959;524159;524159;78.0;0.0;0.0
11:19:40.072230;393;190602;133313;131727;229686;524159;524159;78.0;0.0;0.0
11:19:40.082361;394;190380;133264;131704;229508;524159;524159;78.0;0.0;0.0
11:19:40.092373;395;190351;133291;131725;229526;524159;524159;78.0;0.0;0.0
11:19:40.092373;396;190453;133335;131756;229638;524159;524159;78.0;0.0;0.0
11:19:40.102209;397;190618;133386;131794;229809;524159;524159;78.0;0.0;0.0
11:19:40.272430;398;190788;133409;131817;229964;524159;524159;78.0;1076.9;0.0
11:19:40.287544;399;190839;133392;131802;229998;524159;524159;78.0;0.0;0.0
11:19:40.292077;400;190826;133373;131795;229987;524159;524159;77.0;0.0;0.0
11:19:40.292077;401;190853;133384;131797;230002;524159;524159;77.0;0.0;0.0
11:19:40.302438;402;190948;133403;131818;230087;524159;524159;77.0;0.0;0.0
11:19:40.482545;403;191107;133441;131853;230230;524159;524159;77.0;0.0;0.0
11:19:40.492185;404;191279;133488;131879;230411;524159;524159;77.0;0.0;0.0
11:19:40.492185;405;191470;133529;131905;230602;524159;524159;77.0;0.0;0.0
11:19:40.502377;406;191649;133550;131921;230768;524159;524159;77.0;0.0;0.0
11:19:40.502377;407;191808;133562;131935;230909;524159;524159;77.0;0.0;0.0
11:19:40.672479;408;191964;133584;131952;231054;524159;524159;77.0;0.0;0.0
11:19:40.682485;409;192121;133606;131963;231206;524159;524159;77.0;0.0;0.0
11:19:40.692313;410;192292;133626;131979;231369;524159;524159;77.0;0.0;0.0
11:19:40.692313;411;192464;133647;132004;231547;524159;524159;77.0;0.0;0.0
11:19:40.702340;412;192650;133689;132022;231752;524159;524159;77.0;0.0;0.0
11:19:40.882236;413;192851;133721;132043;231963;524159;524159;77.0;0.0;0.0
11:19:40.892276;414;193044;133739;132045;232136;524159;524159;77.0;0.0;0.0
11:19:40.892276;415;192963;133627;131962;232023;524159;524159;76.0;0.0;0.0
11:19:40.892276;416;192609;133487;131872;231659;524159;524159;76.0;0.0;0.0
11:19:40.902291;417;192302;133442;131845;231362;524159;524159;76.0;0.0;0.0
11:19:41.072258;418;192173;133449;131849;231217;524159;524159;76.0;0.0;0.0
11:19:41.082391;419;192186;133491;131885;231193;524159;524159;76.0;0.0;0.0
11:19:41.092415;420;192302;133549;131933;231277;524159;524159;76.0;0.0;0.0
11:19:41.092415;421;192414;133567;131954;231345;524159;524159;76.0;0.0;0.0
11:19:41.102156;422;192410;133553;131931;231302;524159;524159;76.0;0.0;0.0
11:19:41.272601;423;192331;133536;131928;231184;524159;524159;76.0;0.0;0.0
11:19:41.282193;424;192290;133547;131938;231106;524159;524159;76.0;0.0;0.0
11:19:41.292472;425;192316;133569;131960;231089;524159;524159;76.0;1079.1;0.0
11:19:41.292472;426;192415;133615;131990;231153;524159;524159;76.0;0.0;0.0
11:19:41.302347;427;192546;133640;132009;231250;524159;524159;76.0;0.0;0.0
11:19:41.472500;428;192687;133674;132029;231353;524159;524159;76.0;0.0;0.0
11:19:41.482331;429;192816;133706;132055;231431;524159;524159;76.0;0.0;0.0
11:19:41.492373;430;192932;133733;132067;231509;524159;524159;75.0;0.0;0.0
11:19:41.492373;431;193054;133742;132082;231591;524159;524159;75.0;0.0;0.0
11:19:41.502350;432;193186;133775;132102;231697;524159;524159;75.0;0.0;0.0
11:19:41.682483;433;193313;133796;132117;231785;524159;524159;75.0;0.0;0.0
11:19:41.682483;434;193269;133722;132065;231675;524159;524159;75.0;0.0;0.0
11:19:41.692413;435;192872;133575;131953;231197;524159;524159;75.0;0.0;0.0
11:19:41.692413;436;192406;133506;131910;230648;524159;524159;75.0;0.0;0.0
11:19:41.702619;437;192133;133510;131916;230280;524159;524159;75.0;0.0;0.0
11:19:41.872630;438;191991;133540;131940;230038;524159;524159;75.0;0.0;0.0
11:19:41.882208;439;191979;133588;131970;229928;524159;524159;75.0;0.0;0.0
11:19:41.892514;440;192003;133623;132006;229856;524159;524159;74.0;0.0;0.0
11:19:41.897521;441;191942;133616;132007;229712;524159;524159;74.0;0.0;0.0
11:19:41.902550;442;191800;133593;131987;229490;524159;524159;74.0;0.0;0.0
11:19:42.077329;443;191662;133592;131982;229271;524159;524159;74.0;0.0;0.0
11:19:42.087389;444;191618;133622;132013;229135;524159;524159;74.0;0.0;0.0
11:19:42.092432;445;191630;133656;132029;229069;524159;524159;74.0;0.0;0.0
11:19:42.097438;446;191683;133685;132055;229062;524159;524159;74.0;0.0;0.0
11:19:42.102469;447;191763;133716;132073;229063;524159;524159;74.0;0.0;0.0
11:19:42.282404;448;191848;133741;132083;229087;524159;524159;74.0;0.0;0.0
11:19:42.287411;449;191914;133758;132105;229090;524159;524159;74.0;0.0;0.0
11:19:42.292463;450;192004;133777;132117;229110;524159;524159;73.0;1004.2;0.0
11:19:42.297468;451;192071;133795;132133;229116;524159;524159;73.0;0.0;0.0
11:19:42.302507;452;192179;133834;132151;229170;524159;524159;73.0;0.0;0.0
11:19:42.472626;453;192294;133841;132153;229215;524159;524159;73.0;0.0;0.0
11:19:42.482146;454;192217;133762;132089;229024;524159;524159;73.0;0.0;0.0
11:19:42.492130;455;191646;133569;131947;228315;524159;524159;73.0;0.0;0.0
11:19:42.502469;456;190944;133448;131867;227461;524159;524159;73.0;0.0;0.0
11:19:42.512605;457;190399;133413;131848;226749;524159;524159;73.0;0.0;0.0
11:19:42.672580;458;190033;133411;131855;226238;524159;524159;73.0;0.0;0.0
11:19:42.682255;459;189780;133424;131859;225835;524159;524159;73.0;0.0;0.0
11:19:42.692512;460;189627;133427;131870;225535;524159;524159;72.0;0.0;0.0
11:19:42.702167;461;189445;133422;131857;225200;524159;524159;72.0;0.0;0.0
11:19:42.712334;462;189180;133384;131838;224772;524159;524159;72.0;0.0;0.0
11:19:42.872483;463;188936;133367;131823;224351;524159;524159;72.0;0.0;0.0
11:19:42.882211;464;188767;133377;131831;224043;524159;524159;72.0;0.0;0.0
11:19:42.892538;465;188688;133403;131843;223812;524159;524159;72.0;0.0;0.0
11:19:42.902393;466;188664;133434;131854;223644;524159;524159;72.0;0.0;0.0
11:19:42.902393;467;188676;133449;131865;223527;524159;524159;72.0;0.0;0.0
11:19:43.072282;468;188704;133458;131877;223433;524159;524159;72.0;0.0;0.0
11:19:43.082478;469;188722;133470;131887;223323;524159;524159;72.0;0.0;0.0
11:19:43.092105;470;188742;133476;131884;223220;524159;524159;72.0;0.0;0.0
11:19:43.092105;471;188785;133495;131886;223157;524159;524159;72.0;0.0;0.0
11:19:43.102398;472;188834;133514;131893;223106;524159;524159;72.0;0.0;0.0
11:19:43.272471;473;188912;133529;131904;223098;524159;524159;72.0;928.7;0.0
11:19:43.292593;474;189024;133550;131918;223121;524159;524159;72.0;0.0;0.0
11:19:43.292593;475;189139;133579;131935;223155;524159;524159;72.0;0.0;0.0
11:19:43.302636;476;189275;133601;131937;223212;524159;524159;72.0;0.0;0.0
11:19:43.302636;477;189429;133619;131951;223285;524159;524159;72.0;0.0;0.0
11:19:43.312533;478;189571;133641;131957;223348;524159;524159;72.0;0.0;0.0
11:19:43.682420;479;189720;133668;131984;223441;524159;524159;72.0;0.0;0.0
11:19:43.692333;480;189869;133672;131974;223504;524159;524159;71.0;0.0;0.0
11:19:43.692333;481;189767;133568;131884;223270;524159;524159;71.0;0.0;0.0
11:19:43.707355;482;189090;133336;131726;222413;524159;524159;71.0;0.0;0.0
11:19:43.712389;483;188256;133188;131634;221379;524159;524159;71.0;0.0;0.0
11:19:43.722255;484;187623;133136;131606;220542;524159;524159;71.0;0.0;0.0
11:19:43.722255;485;187187;133125;131596;219899;524159;524159;71.0;0.0;0.0
11:19:43.732211;486;186833;133108;131594;219350;524159;524159;71.0;0.0;0.0
11:19:43.742265;487;186579;133105;131599;218914;524159;524159;71.0;0.0;0.0
11:19:43.742265;488;186301;133089;131581;218452;524159;524159;71.0;0.0;0.0
11:19:44.082374;489;185980;133045;131546;217940;524159;524159;71.0;0.0;0.0
11:19:44.092179;490;185650;133018;131527;217416;524159;524159;71.0;0.0;0.0
11:19:44.092179;491;185405;133018;131532;216975;524159;524159;71.0;0.0;0.0
11:19:44.102470;492;185271;133034;131539;216659;524159;524159;71.0;779.3;0.0
11:19:44.112468;493;185195;133048;131545;216435;524159;524159;71.0;0.0;0.0
11:19:44.112468;494;185183;133071;131552;216249;524159;524159;71.0;0.0;0.0
11:19:44.122577;495;185179;133079;131551;216103;524159;524159;71.0;0.0;0.0
11:19:44.132104;496;185176;133078;131548;215956;524159;524159;71.0;0.0;0.0
11:19:44.142108;497;185187;133071;131541;215820;524159;524159;71.0;0.0;0.0
11:19:44.282363;498;185198;133087;131543;215697;524159;524159;71.0;0.0;0.0
11:19:44.282363;499;185229;133102;131551;215609;524159;524159;71.0;0.0;0.0
11:19:44.292151;500;185311;133116;131562;215568;524159;524159;71.0;0.0;0.0
11:19:44.307240;501;185403;133124;131563;215554;524159;524159;71.0;0.0;0.0
11:19:44.312300;502;185528;133144;131565;215578;524159;524159;71.0;0.0;0.0
11:19:44.312300;503;185669;133171;131581;215632;524159;524159;71.0;0.0;0.0
11:19:44.682267;504;185801;133184;131589;215672;524159;524159;71.0;0.0;0.0
11:19:44.702159;505;185970;133202;131596;215759;524159;524159;71.0;0.0;0.0
11:19:44.702159;506;186139;133231;131601;215851;524159;524159;71.0;0.0;0.0
11:19:44.702159;507;186317;133252;131613;215963;524159;524159;71.0;0.0;0.0
11:19:44.712557;508;186510;133263;131627;216091;524159;524159;71.0;0.0;0.0
11:19:44.722210;509;186560;133203;131570;216025;524159;524159;71.0;0.0;0.0
11:19:44.722210;510;186052;132995;131413;215345;524159;524159;71.0;0.0;0.0
11:19:44.734573;511;185255;132829;131300;214350;524159;524159;71.0;0.0;0.0
11:19:44.742092;512;184653;132768;131271;213544;524159;524159;71.0;0.0;0.0
11:19:44.742092;513;184273;132753;131265;212954;524159;524159;71.0;812.5;0.0
11:19:45.087136;514;184011;132746;131261;212491;524159;524159;71.0;0.0;0.0
11:19:45.092181;515;183854;132761;131266;212156;524159;524159;71.0;0.0;0.0
11:19:45.107371;516;183711;132750;131256;211823;524159;524159;71.0;0.0;0.0
11:19:45.112461;517;183476;132706;131222;211416;524159;524159;71.0;0.0;0.0
11:19:45.122672;518;183222;132671;131202;210962;524159;524159;71.0;0.0;0.0
11:19:45.122672;519;183060;132659;131194;210613;524159;524159;71.0;0.0;0.0
11:19:45.127678;520;182981;132679;131202;210386;524159;524159;71.0;0.0;0.0
11:19:45.132199;521;182990;132689;131206;210253;524159;524159;71.0;0.0;0.0
11:19:45.142154;522;183019;132713;131216;210165;524159;524159;71.0;0.0;0.0
11:19:45.282544;523;183085;132721;131222;210117;524159;524159;71.0;0.0;0.0
11:19:45.282544;524;183141;132728;131209;210083;524159;524159;71.0;0.0;0.0
11:19:45.292352;525;183211;132735;131209;210058;524159;524159;70.0;0.0;0.0
11:19:45.302303;526;183270;132741;131215;210041;524159;524159;70.0;0.0;0.0
11:19:45.302303;527;183358;132751;131210;210050;524159;524159;70.0;0.0;0.0
11:19:45.312305;528;183472;132765;131224;210092;524159;524159;70.0;0.0;0.0
11:19:45.682321;529;183609;132789;131217;210169;524159;524159;70.0;0.0;0.0
11:19:45.692542;530;183760;132822;131236;210280;524159;524159;70.0;0.0;0.0
11:19:45.702322;531;183932;132837;131252;210423;524159;524159;70.0;0.0;0.0
11:19:45.707330;532;184112;132856;131256;210585;524159;524159;70.0;0.0;0.0
11:19:45.712403;533;184313;132878;131267;210771;524159;524159;70.0;0.0;0.0
11:19:45.722563;534;184501;132889;131276;210935;524159;524159;70.0;0.0;0.0
11:19:45.722563;535;184442;132790;131188;210819;524159;524159;70.0;0.0;0.0
11:19:45.732357;536;183881;132580;131041;210135;524159;524159;70.0;0.0;0.0
11:19:45.742380;537;183217;132467;130979;209325;524159;524159;70.0;0.0;0.0
11:19:45.752416;538;182789;132451;130966;208758;524159;524159;70.0;0.0;0.0
11:19:46.082111;539;182560;132444;130960;208389;524159;524159;70.0;0.0;0.0
11:19:46.092482;540;182476;132458;130973;208170;524159;524159;70.0;0.0;0.0
11:19:46.102172;541;182453;132475;130985;208038;524159;524159;70.0;1079.6;0.0
11:19:46.112215;542;182375;132455;130969;207859;524159;524159;70.0;0.0;0.0
11:19:46.112215;543;182194;132403;130929;207569;524159;524159;70.0;0.0;0.0
11:19:46.122148;544;182021;132382;130913;207300;524159;524159;70.0;0.0;0.0
11:19:46.122148;545;181952;132389;130911;207157;524159;524159;70.0;0.0;0.0
11:19:46.132215;546;181966;132407;130929;207092;524159;524159;70.0;0.0;0.0
11:19:46.142268;547;182048;132431;130933;207096;524159;524159;70.0;0.0;0.0
11:19:46.282549;548;182156;132448;130944;207149;524159;524159;70.0;0.0;97.0
11:19:46.287556;549;182271;132462;130946;207219;524159;524159;70.0;0.0;97.0
11:19:46.292087;550;182380;132470;130954;207286;524159;524159;70.0;0.0;97.0
11:19:46.307419;551;182482;132491;130953;207378;524159;524159;70.0;0.0;97.0
11:19:46.312467;552;182602;132493;130959;207485;524159;524159;70.0;0.0;97.0
11:19:46.322367;553;182733;132516;130968;207611;524159;524159;70.0;0.0;97.0
11:19:46.482222;554;182886;132528;130973;207749;524159;524159;70.0;0.0;97.0
11:19:46.492318;555;182911;132481;130929;207761;524159;524159;70.0;0.0;97.0
11:19:46.502129;556;182524;132316;130810;207307;524159;524159;70.0;0.0;97.0
11:19:46.502129;557;181965;132210;130742;206664;524159;524159;70.0;0.0;97.0
11:19:46.512118;558;181568;132183;130726;206199;524159;524159;70.0;0.0;97.0
11:19:46.682426;559;181369;132185;130729;205920;524159;524159;70.0;0.0;97.0
11:19:46.692243;560;181324;132218;130748;205823;524159;524159;70.0;0.0;97.0
11:19:46.702332;561;181384;132252;130769;205847;524159;524159;70.0;0.0;97.0
11:19:46.707339;562;181356;132220;130745;205780;524159;524159;70.0;0.0;97.0
11:19:46.712364;563;181209;132184;130722;205604;524159;524159;70.0;0.0;97.0
11:19:46.882128;564;181080;132171;130711;205446;524159;524159;70.0;0.0;97.0
11:19:46.892343;565;181022;132183;130719;205374;524159;524159;70.0;0.0;97.0
11:19:46.902403;566;181044;132195;130733;205408;524159;524159;70.0;0.0;97.0
11:19:46.912462;567;181145;132235;130748;205517;524159;524159;70.0;0.0;97.0
11:19:46.912462;568;181259;132255;130763;205652;524159;524159;70.0;0.0;97.0
11:19:47.282171;569;181396;132268;130770;205809;524159;524159;70.0;1127.6;97.0
11:19:47.292173;570;181521;132283;130782;205955;524159;524159;70.0;0.0;97.0
11:19:47.302252;571;181646;132299;130787;206121;524159;524159;70.0;0.0;97.0
11:19:47.302252;572;181764;132313;130798;206301;524159;524159;70.0;0.0;97.0
11:19:47.312199;573;181931;132328;130799;206504;524159;524159;70.0;0.0;96.9
11:19:47.322167;574;182065;132331;130809;206669;524159;524159;70.0;0.0;96.9
11:19:47.332177;575;181891;132212;130725;206507;524159;524159;70.0;0.0;96.9
11:19:47.332177;576;181367;132074;130621;205961;524159;524159;70.0;0.0;96.9
11:19:47.342289;577;180892;132002;130596;205459;524159;524159;70.0;0.0;96.9
11:19:47.352268;578;180613;132004;130604;205155;524159;524159;70.0;0.0;96.9
11:19:47.482503;579;180524;132023;130615;205042;524159;524159;70.0;0.0;96.9
11:19:47.492475;580;180578;132057;130640;205070;524159;524159;70.0;0.0;96.9
11:19:47.492475;581;180610;132063;130647;205102;524159;524159;70.0;0.0;96.9
11:19:47.502436;582;180540;132030;130624;205025;524159;524159;70.0;0.0;96.9
11:19:47.512293;583;180413;131997;130599;204888;524159;524159;70.0;0.0;96.9
11:19:47.682403;584;180338;131998;130605;204811;524159;524159;70.0;0.0;96.9
11:19:47.682403;585;180345;132025;130623;204836;524159;524159;70.0;0.0;96.9
11:19:47.692275;586;180427;132044;130641;204934;524159;524159;70.0;0.0;96.9
11:19:47.702463;587;180552;132072;130657;205093;524159;524159;70.0;0.0;96.9
11:19:47.712507;588;180706;132090;130683;205288;524159;524159;70.0;0.0;96.9
11:19:47.882515;589;180851;132109;130702;205477;524159;524159;70.0;0.0;96.9
11:19:47.892349;590;180996;132127;130716;205673;524159;524159;70.0;0.0;96.9
11:19:47.892349;591;181122;132140;130719;205858;524159;524159;70.0;0.0;96.9
11:19:47.902243;592;181265;132162;130747;206061;524159;524159;70.0;0.0;96.9
11:19:47.912163;593;181426;132184;130762;206283;524159;524159;70.0;0.0;96.9
11:19:48.282149;594;181601;132215;130788;206541;524159;524159;70.0;1026.4;96.9
11:19:48.292126;595;181797;132254;130814;206822;524159;524159;70.0;0.0;96.9
11:19:48.302179;596;182019;132271;130825;207116;524159;524159;70.0;0.0;96.9
11:19:48.312213;597;182051;132210;130777;207189;524159;524159;70.0;0.0;96.9
11:19:48.312213;598;181631;132045;130670;206805;524159;524159;70.0;0.0;97.0
11:19:48.322418;599;181102;131934;130611;206300;524159;524159;70.0;0.0;97.0
11:19:48.332351;600;180762;131932;130617;205979;524159;524159;70.0;0.0;97.0
11:19:48.332351;601;180658;131953;130624;205877;524159;524159;70.0;0.0;97.0
11:19:48.342367;602;180700;131998;130663;205932;524159;524159;70.0;0.0;97.0
11:19:48.352358;603;180796;132020;130680;206044;524159;524159;70.0;0.0;97.0
11:19:48.482435;604;180784;132003;130669;206073;524159;524159;70.0;0.0;97.0
11:19:48.492491;605;180659;131965;130653;205966;524159;524159;70.0;0.0;97.0
11:19:48.492491;606;180543;131955;130644;205877;524159;524159;70.0;0.0;97.0
11:19:48.502339;607;180524;131980;130659;205900;524159;524159;70.0;0.0;97.0
11:19:48.512439;608;180591;132019;130692;206013;524159;524159;70.0;0.0;97.0
11:19:48.682453;609;180730;132044;130716;206199;524159;524159;70.0;0.0;97.0
11:19:48.692523;610;180869;132078;130745;206374;524159;524159;70.0;0.0;97.0
11:19:48.692523;611;181004;132107;130759;206582;524159;524159;70.0;0.0;97.0
11:19:48.702328;612;181127;132122;130781;206766;524159;524159;70.0;0.0;97.0
11:19:48.717536;613;181274;132147;130792;206970;524159;524159;70.0;0.0;97.0
11:19:48.882189;614;181420;132173;130813;207201;524159;524159;70.0;805.7;97.0
11:19:48.902396;615;181575;132189;130827;207423;524159;524159;70.0;0.0;97.0
11:19:48.902396;616;181485;132099;130764;207394;524159;524159;70.0;0.0;97.0
11:19:48.902396;617;181074;131985;130673;207034;524159;524159;70.0;0.0;97.0
11:19:48.912491;618;180664;131930;130650;206669;524159;524159;70.0;0.0;97.0
11:19:49.292429;619;180463;131934;130664;206509;524159;524159;70.0;0.0;97.0
11:19:49.292429;620;180450;131985;130702;206520;524159;524159;70.0;0.0;97.0
11:19:49.302247;621;180587;132031;130740;206689;524159;524159;70.0;0.0;97.0
11:19:49.312368;622;180681;132039;130740;206810;524159;524159;70.0;0.0;97.0
11:19:49.322405;623;180638;132007;130726;206800;524159;524159;70.0;0.0;96.3
11:19:49.322405;624;180535;131995;130712;206748;524159;524159;70.0;0.0;96.3
11:19:49.332210;625;180503;132002;130719;206774;524159;524159;70.0;0.0;96.3
11:19:49.342477;626;180556;132033;130753;206871;524159;524159;70.0;0.0;96.3
11:19:49.342477;627;180678;132064;130770;207051;524159;524159;70.0;0.0;96.3
11:19:49.352396;628;180825;132099;130802;207273;524159;524159;70.0;0.0;96.3
11:19:49.482068;629;180977;132135;130827;207511;524159;524159;70.0;0.0;96.3
11:19:49.492102;630;181139;132170;130843;207749;524159;524159;70.0;0.0;96.3
11:19:49.492102;631;181292;132191;130861;207985;524159;524159;70.0;0.0;96.3
11:19:49.502563;632;181446;132213;130872;208226;524159;524159;70.0;0.0;96.3
11:19:49.512082;633;181354;132112;130801;208192;524159;524159;70.0;0.0;96.3
11:19:49.682366;634;180851;131959;130695;207744;524159;524159;70.0;777.3;96.3
11:19:49.692160;635;180318;131891;130667;207265;524159;524159;70.0;0.0;96.3
11:19:49.702391;636;180016;131893;130670;206991;524159;524159;70.0;0.0;96.3
11:19:49.712347;637;179912;131917;130687;206915;524159;524159;70.0;0.0;96.3
11:19:49.712347;638;179954;131969;130727;206999;524159;524159;70.0;0.0;96.3
11:19:49.882363;639;180000;131981;130743;207075;524159;524159;70.0;0.0;96.3
11:19:49.892423;640;179905;131945;130718;207028;524159;524159;70.0;0.0;96.3
11:19:49.892423;641;179744;131921;130698;206917;524159;524159;70.0;0.0;96.3
11:19:49.902511;642;179628;131932;130713;206858;524159;524159;70.0;0.0;96.3
11:19:49.917146;643;179628;131947;130735;206912;524159;524159;70.0;0.0;96.3
11:19:50.082227;644;179693;131980;130754;207027;524159;524159;70.0;0.0;96.3
11:19:50.092325;645;179795;132019;130768;207193;524159;524159;70.0;0.0;96.3
11:19:50.092325;646;179935;132046;130800;207388;524159;524159;70.0;0.0;96.3
11:19:50.102171;647;180044;132061;130806;207561;524159;524159;70.0;0.0;96.3
11:19:50.112103;648;180166;132088;130828;207745;524159;524159;70.0;0.0;95.8
11:19:50.292304;649;180275;132099;130840;207927;524159;524159;70.0;0.0;95.8
11:19:50.302588;650;180123;132006;130763;207844;524159;524159;70.0;0.0;95.8
11:19:50.307595;651;179518;131836;130647;207305;524159;524159;70.0;0.0;95.8
11:19:50.307595;652;178877;131751;130596;206732;524159;524159;70.0;0.0;95.8
11:19:50.312120;653;178452;131737;130603;206360;524159;524159;70.0;0.0;95.8
11:19:50.482208;654;178230;131743;130605;206163;524159;524159;70.0;0.0;95.8
11:19:50.492314;655;178164;131780;130640;206116;524159;524159;69.0;0.0;95.8
11:19:50.492314;656;178117;131791;130645;206111;524159;524159;69.0;892.1;95.8
11:19:50.502338;657;177955;131756;130617;205992;524159;524159;69.0;0.0;95.8
11:19:50.512298;658;177706;131729;130612;205787;524159;524159;69.0;0.0;95.8
11:19:50.682534;659;177530;131734;130615;205661;524159;524159;69.0;0.0;95.8
11:19:50.692505;660;177469;131751;130632;205649;524159;524159;69.0;0.0;95.8
11:19:50.692505;661;177479;131783;130659;205705;524159;524159;69.0;0.0;95.8
11:19:50.707326;662;177538;131812;130679;205808;524159;524159;69.0;0.0;95.8
11:19:50.712376;663;177601;131840;130703;205924;524159;524159;69.0;0.0;95.8
11:19:50.882139;664;177658;131855;130714;206039;524159;524159;69.0;0.0;95.8
11:19:50.892319;665;177719;131875;130731;206162;524159;524159;69.0;0.0;95.8
11:19:50.902367;666;177800;131902;130743;206308;524159;524159;69.0;0.0;95.8
11:19:50.912130;667;177888;131921;130761;206452;524159;524159;69.0;0.0;95.8
11:19:50.912130;668;177722;131835;130706;206356;524159;524159;69.0;0.0;95.8
11:19:51.092306;669;177001;131656;130583;205730;524159;524159;69.0;0.0;95.8
11:19:51.102583;670;176177;131536;130513;205006;524159;524159;69.0;0.0;95.8
11:19:51.112363;671;175559;131499;130500;204473;524159;524159;69.0;0.0;95.8
11:19:51.117371;672;175137;131504;130510;204143;524159;524159;69.0;0.0;95.8
11:19:51.122409;673;174875;131513;130518;203944;524159;524159;69.0;0.0;95.5
11:19:51.282349;674;174712;131522;130531;203822;524159;524159;69.0;749.0;95.5
11:19:51.292503;675;174461;131494;130511;203644;524159;524159;69.0;0.0;95.5
11:19:51.302354;676;174160;131473;130499;203418;524159;524159;69.0;0.0;95.5
11:19:51.302354;677;173901;131462;130496;203233;524159;524159;69.0;0.0;95.5
11:19:51.312100;678;173768;131485;130508;203162;524159;524159;69.0;0.0;95.5
11:19:51.482382;679;173740;131508;130533;203173;524159;524159;69.0;0.0;95.5
11:19:51.492346;680;173752;131534;130546;203221;524159;524159;69.0;0.0;95.5
11:19:51.502379;681;173791;131556;130566;203307;524159;524159;69.0;0.0;95.5
11:19:51.507384;682;173830;131572;130572;203395;524159;524159;69.0;0.0;95.5
11:19:51.512410;683;173856;131586;130585;203484;524159;524159;69.0;0.0;95.5
11:19:51.687431;684;173899;131598;130599;203601;524159;524159;69.0;0.0;95.5
11:19:51.692478;685;173961;131625;130610;203749;524159;524159;69.0;0.0;95.5
11:19:51.702157;686;174053;131646;130631;203913;524159;524159;69.0;0.0;95.5
11:19:51.707163;687;174172;131675;130650;204107;524159;524159;69.0;0.0;95.5
11:19:51.712202;688;174330;131703;130664;204342;524159;524159;69.0;0.0;95.5
11:19:51.882361;689;174493;131736;130689;204586;524159;524159;69.0;0.0;95.5
11:19:51.896360;690;174671;131757;130712;204849;524159;524159;69.0;0.0;95.5
11:19:51.903811;691;174862;131790;130733;205113;524159;524159;69.0;0.0;95.5
11:19:51.910789;692;175062;131816;130750;205394;524159;524159;69.0;686.8;95.5
11:19:51.918813;693;175272;131852;130774;205681;524159;524159;69.0;0.0;95.5
11:19:52.088075;694;175502;131875;130802;205975;524159;524159;69.0;0.0;95.5
11:19:52.095813;695;175739;131919;130814;206281;524159;524159;69.0;0.0;95.5
11:19:52.104812;696;175966;131926;130825;206558;524159;524159;69.0;0.0;95.5
11:19:52.110804;697;175737;131776;130713;206408;524159;524159;69.0;0.0;95.5
11:19:52.118257;698;174827;131544;130548;205667;524159;524159;69.0;0.0;95.3
11:19:52.290855;699;173896;131401;130478;204876;524159;524159;69.0;0.0;95.3
11:19:52.296851;700;173244;131363;130465;204329;524159;524159;69.0;0.0;95.3
11:19:52.302847;701;172779;131340;130455;203896;524159;524159;69.0;0.0;95.3
11:19:52.310816;702;172424;131322;130449;203582;524159;524159;69.0;0.0;95.3
11:19:52.318116;703;172171;131324;130457;203337;524159;524159;69.0;0.0;95.3
11:19:52.490700;704;171901;131319;130447;203087;524159;524159;69.0;0.0;95.3
11:19:52.495696;705;171572;131282;130420;202809;524159;524159;69.0;0.0;95.3
11:19:52.502822;706;171290;131268;130422;202570;524159;524159;69.0;0.0;95.3
11:19:52.509992;707;171125;131278;130437;202448;524159;524159;69.0;0.0;95.3
11:19:52.516831;708;171059;131307;130446;202408;524159;524159;69.0;0.0;95.3
11:19:52.689129;709;171087;131333;130465;202443;524159;524159;69.0;685.3;95.3
11:19:52.696818;710;171125;131345;130484;202501;524159;524159;69.0;0.0;95.3
11:19:52.708808;711;171168;131360;130485;202571;524159;524159;69.0;0.0;95.3
11:19:52.714804;712;171227;131380;130503;202669;524159;524159;69.0;0.0;95.3
11:19:52.718802;713;171293;131398;130508;202775;524159;524159;69.0;0.0;95.3
11:19:52.895577;714;171379;131416;130522;202907;524159;524159;69.0;0.0;95.3
11:19:52.911571;715;171492;131444;130547;203069;524159;524159;69.0;0.0;95.3
11:19:52.917564;716;171652;131473;130567;203286;524159;524159;69.0;0.0;95.3
11:19:52.920563;717;171829;131511;130585;203511;524159;524159;69.0;0.0;95.3
11:19:52.922561;718;172022;131536;130600;203758;524159;524159;69.0;0.0;95.3
11:19:53.090767;719;172238;131558;130631;204014;524159;524159;69.0;0.0;95.3
11:19:53.096764;720;172452;131592;130648;204284;524159;524159;69.0;0.0;95.3
11:19:53.104811;721;172688;131624;130667;204562;524159;524159;69.0;0.0;95.3
11:19:53.114811;722;172919;131655;130699;204848;524159;524159;69.0;0.0;95.3
11:19:53.125798;723;173188;131693;130714;205170;524159;524159;69.0;0.0;95.2
11:19:53.289452;724;173414;131701;130726;205428;524159;524159;69.0;0.0;95.2
11:19:53.296551;725;173246;131563;130621;205318;524159;524159;69.0;0.0;95.2
11:19:53.302997;726;172473;131359;130476;204671;524159;524159;69.0;0.0;95.2
11:19:53.311179;727;171717;131254;130426;204017;524159;524159;69.0;727.1;95.2
11:19:53.319296;728;171203;131231;130418;203587;524159;524159;69.0;0.0;95.2
11:19:53.489809;729;170892;131216;130417;203315;524159;524159;69.0;0.0;95.2
11:19:53.498805;730;170705;131224;130422;203143;524159;524159;69.0;0.0;95.2
11:19:53.507802;731;170589;131245;130440;203034;524159;524159;69.0;0.0;95.2
11:19:53.513800;732;170444;131218;130427;202913;524159;524159;69.0;0.0;95.2
11:19:53.520201;733;170233;131192;130413;202742;524159;524159;69.0;0.0;95.2
11:19:53.692913;734;170066;131184;130412;202598;524159;524159;69.0;0.0;95.2
11:19:53.701913;735;170011;131210;130433;202557;524159;524159;69.0;0.0;95.2
11:19:53.710908;736;170073;131246;130453;202619;524159;524159;69.0;0.0;95.2
11:19:53.719902;737;170149;131277;130472;202701;524159;524159;69.0;0.0;95.2
11:19:53.725894;738;170267;131299;130492;202827;524159;524159;69.0;0.0;95.2
11:19:53.889815;739;170390;131326;130509;202973;524159;524159;69.0;0.0;95.2
11:19:53.896811;740;170507;131344;130518;203114;524159;524159;69.0;0.0;95.2
11:19:53.904806;741;170661;131362;130528;203285;524159;524159;69.0;0.0;95.2
11:19:53.911817;742;170809;131380;130552;203463;524159;524159;69.0;0.0;95.2
11:19:53.918819;743;170984;131419;130563;203673;524159;524159;69.0;0.0;95.2
11:19:54.091218;744;171195;131447;130592;203925;524159;524159;69.0;0.0;95.2
11:19:54.100213;745;171428;131474;130615;204191;524159;524159;69.0;0.0;95.2
11:19:54.110208;746;171684;131517;130627;204484;524159;524159;69.0;0.0;95.2
11:19:54.116202;747;171944;131544;130661;204764;524159;524159;69.0;0.0;95.2
11:19:54.120200;748;172232;131574;130678;205089;524159;524159;69.0;0.0;95.1
11:19:54.291507;749;172512;131610;130700;205399;524159;524159;69.0;0.0;95.1
11:19:54.300497;750;172811;131647;130727;205734;524159;524159;70.0;0.0;95.1
11:19:54.310491;751;173106;131676;130743;206054;524159;524159;70.0;0.0;95.1
11:19:54.319485;752;173160;131607;130686;206146;524159;524159;70.0;0.0;95.1
11:19:54.326483;753;172614;131411;130554;205728;524159;524159;70.0;0.0;95.1
11:19:54.495316;754;171950;131289;130489;205189;524159;524159;70.0;0.0;95.1
11:19:54.505310;755;171542;131278;130487;204856;524159;524159;70.0;0.0;95.1
11:19:54.511303;756;171373;131290;130495;204711;524159;524159;70.0;1150.9;95.1
11:19:54.515300;757;171334;131314;130511;204684;524159;524159;70.0;0.0;95.1
11:19:54.519298;758;171369;131348;130546;204721;524159;524159;70.0;0.0;95.1
11:19:54.690835;759;171358;131346;130539;204735;524159;524159;70.0;0.0;95.1
11:19:54.697811;760;171251;131308;130519;204667;524159;524159;70.0;0.0;95.1
11:19:54.707809;761;171146;131300;130520;204586;524159;524159;70.0;0.0;95.1
11:19:54.719798;762;171148;131332;130543;204603;524159;524159;70.0;0.0;95.1
11:19:54.722796;763;171245;131366;130565;204710;524159;524159;70.0;0.0;95.1
11:19:54.896135;764;171420;131400;130579;204878;524159;524159;70.0;0.0;95.1
11:19:54.910125;765;171621;131436;130612;205086;524159;524159;70.0;0.0;95.1
11:19:54.921118;766;171817;131469;130636;205302;524159;524159;70.0;0.0;95.1
11:19:54.926111;767;172028;131495;130646;205531;524159;524159;70.0;0.0;95.1
11:19:54.929108;768;172229;131514;130669;205756;524159;524159;70.0;0.0;95.1
11:19:55.094747;769;172450;131536;130680;206000;524159;524159;70.0;0.0;95.1
11:19:55.100743;770;172667;131561;130701;206260;524159;524159;70.0;0.0;95.1
11:19:55.113742;771;172913;131598;130724;206539;524159;524159;70.0;0.0;95.1
11:19:55.124735;772;173184;131635;130748;206855;524159;524159;70.0;0.0;95.1
11:19:55.130730;773;173470;131669;130786;207176;524159;524159;70.0;0.0;95.1
11:19:55.290991;774;173754;131710;130798;207498;524159;524159;70.0;0.0;95.1
11:19:55.297573;775;174071;131740;130824;207844;524159;524159;70.0;0.0;95.1
11:19:55.304992;776;174366;131778;130858;208184;524159;524159;70.0;0.0;95.1
11:19:55.311960;777;174686;131813;130880;208539;524159;524159;70.0;0.0;95.1
11:19:55.319763;778;174985;131840;130898;208868;524159;524159;70.0;0.0;95.1
11:19:55.491356;779;174962;131738;130816;208879;524159;524159;70.0;0.0;95.1
11:19:55.504349;780;174431;131565;130694;208454;524159;524159;70.0;0.0;95.1
11:19:55.515342;781;173923;131491;130657;208041;524159;524159;70.0;0.0;95.1
11:19:55.525333;782;173681;131502;130671;207839;524159;524159;70.0;0.0;95.1
11:19:55.528327;783;173643;131522;130692;207805;524159;524159;70.0;0.0;95.1
11:19:55.690766;784;173721;131564;130721;207884;524159;524159;70.0;0.0;95.1
11:19:55.698912;785;173878;131598;130756;208020;524159;524159;71.0;1119.1;95.1
11:19:55.706761;786;173914;131578;130739;208075;524159;524159;71.0;0.0;95.1
11:19:55.714073;787;173867;131551;130724;208040;524159;524159;71.0;0.0;95.1
11:19:55.720764;788;173851;131560;130734;208041;524159;524159;71.0;0.0;95.1
11:19:55.891791;789;173919;131592;130748;208119;524159;524159;71.0;0.0;95.1
11:19:55.899807;790;174071;131618;130770;208259;524159;524159;71.0;0.0;95.1
11:19:55.907812;791;174274;131661;130799;208460;524159;524159;71.0;0.0;95.1
11:19:55.915800;792;174498;131711;130830;208691;524159;524159;71.0;0.0;95.1
11:19:55.921803;793;174717;131727;130848;208930;524159;524159;71.0;0.0;95.1
11:19:56.091812;794;174932;131761;130882;209162;524159;524159;71.0;0.0;95.1
11:19:56.098808;795;175148;131795;130895;209395;524159;524159;71.0;0.0;95.1
11:19:56.105810;796;175371;131821;130916;209639;524159;524159;71.0;0.0;95.1
11:19:56.113809;797;175605;131854;130940;209892;524159;524159;71.0;0.0;95.1
11:19:56.124803;798;175869;131901;130970;210183;524159;524159;71.0;0.0;95.1
11:19:56.291812;799;176149;131917;130997;210503;524159;524159;71.0;0.0;95.1
11:19:56.300811;800;176429;131955;131019;210816;524159;524159;71.0;0.0;95.1
11:19:56.311804;801;176735;132003;131046;211149;524159;524159;71.0;0.0;95.1
11:19:56.321798;802;177044;132044;131070;211497;524159;524159;71.0;0.0;95.1
11:19:56.327788;803;177353;132077;131106;211836;524159;524159;71.0;0.0;95.1
11:19:56.496307;804;177668;132105;131115;212171;524159;524159;71.0;0.0;95.1
11:19:56.509299;805;177781;132062;131082;212304;524159;524159;71.0;0.0;95.1
11:19:56.517290;806;177371;131886;130953;211983;524159;524159;71.0;0.0;95.1
11:19:56.521288;807;176826;131780;130895;211546;524159;524159;71.0;0.0;95.1
11:19:56.524290;808;176529;131772;130904;211311;524159;524159;71.0;0.0;95.1
11:19:56.697097;809;176452;131793;130918;211242;524159;524159;71.0;0.0;95.1
11:19:56.704093;810;176515;131842;130955;211295;524159;524159;71.0;0.0;95.1
11:19:56.712088;811;176664;131881;130996;211441;524159;524159;71.0;1084.5;95.1
11:19:56.719084;812;176756;131891;130997;211538;524159;524159;71.0;0.0;95.1
11:19:56.726080;813;176728;131875;130976;211522;524159;524159;71.0;0.0;95.1
11:19:56.891810;814;176710;131853;130957;211537;524159;524159;71.0;0.0;95.1
11:19:56.902770;815;176760;131865;130955;211600;524159;524159;71.0;0.0;95.1
11:19:56.916758;816;176897;131894;130961;211729;524159;524159;71.0;0.0;95.1
11:19:56.926753;817;177119;131929;130991;211959;524159;524159;71.0;0.0;95.1
11:19:56.932748;818;177366;131955;131004;212216;524159;524159;71.0;0.0;95.1
11:19:57.092812;819;177622;131979;131013;212461;524159;524159;71.0;0.0;95.1
11:19:57.099808;820;177872;132007;131028;212724;524159;524159;71.0;0.0;95.1
11:19:57.111807;821;178109;132036;131059;212958;524159;524159;71.0;0.0;95.1
11:19:57.116799;822;178324;132079;131099;213187;524159;524159;71.0;0.0;95.1
11:19:57.121923;823;178530;132122;131133;213422;524159;524159;71.0;0.0;95.1
11:19:57.292996;824;178763;132168;131176;213688;524159;524159;71.0;0.0;95.1
11:19:57.299990;825;179011;132206;131214;213962;524159;524159;71.0;0.0;95.1
11:19:57.306759;826;179292;132250;131259;214270;524159;524159;71.0;0.0;95.1
11:19:57.313988;827;179580;132295;131292;214588;524159;524159;71.0;0.0;95.1
11:19:57.321023;828;179870;132343;131317;214907;524159;524159;71.0;0.0;95.1
11:19:57.492806;829;180181;132375;131352;215223;524159;524159;71.0;0.0;95.1
11:19:57.500803;830;180393;132367;131353;215440;524159;524159;71.0;0.0;95.1
11:19:57.507799;831;180164;132212;131252;215271;524159;524159;71.0;0.0;95.1
11:19:57.513818;832;179602;132093;131163;214814;524159;524159;71.0;0.0;95.1
11:19:57.521818;833;179204;132059;131151;214482;524159;524159;71.0;0.0;95.1
11:19:57.694222;834;179056;132074;131177;214361;524159;524159;71.0;0.0;95.1
11:19:57.708214;835;179100;132114;131209;214397;524159;524159;71.0;0.0;95.1
11:19:57.717207;836;179239;132162;131248;214510;524159;524159;71.0;0.0;95.1
11:19:57.721204;837;179371;132187;131271;214624;524159;524159;71.0;0.0;95.1
11:19:57.724204;838;179362;132164;131259;214632;524159;524159;71.0;1066.2;95.1
11:19:57.894706;839;179287;132132;131230;214569;524159;524159;71.0;0.0;95.1
11:19:57.901702;840;179271;132141;131251;214543;524159;524159;71.0;0.0;95.1
11:19:57.908698;841;179355;132173;131272;214609;524159;524159;71.0;0.0;95.1
11:19:57.919692;842;179504;132213;131308;214744;524159;524159;71.0;0.0;95.1
11:19:57.926688;843;179698;132246;131340;214929;524159;524159;71.0;0.0;95.1
11:19:58.093526;844;179899;132281;131353;215128;524159;524159;71.0;0.0;95.1
11:19:58.100788;845;180092;132300;131378;215317;524159;524159;71.0;0.0;95.1
11:19:58.107941;846;180256;132323;131393;215488;524159;524159;71.0;0.0;95.1
11:19:58.114937;847;180429;132351;131414;215675;524159;524159;71.0;0.0;95.1
11:19:58.121933;848;180598;132376;131438;215862;524159;524159;71.0;0.0;95.1
11:19:58.293617;849;180778;132404;131460;216070;524159;524159;71.0;0.0;95.1
11:19:58.300611;850;180983;132441;131483;216305;524159;524159;71.0;0.0;95.1
11:19:58.308607;851;181221;132471;131507;216561;524159;524159;71.0;0.0;95.1
11:19:58.315603;852;181372;132457;131502;216714;524159;524159;71.0;0.0;95.1
11:19:58.323597;853;181122;132340;131404;216506;524159;524159;71.0;0.0;95.1
11:19:58.492955;854;180603;132221;131341;216080;524159;524159;71.0;0.0;95.1
11:19:58.499950;855;180216;132192;131322;215747;524159;524159;71.0;0.0;95.1
11:19:58.507947;856;180092;132222;131340;215620;524159;524159;71.0;0.0;95.1
11:19:58.515940;857;180137;132266;131376;215653;524159;524159;71.0;0.0;95.1
11:19:58.523936;858;180289;132309;131420;215792;524159;524159;71.0;0.0;95.1
11:19:58.693560;859;180376;132312;131417;215872;524159;524159;71.0;0.0;95.1
11:19:58.700310;860;180320;132289;131395;215837;524159;524159;71.0;0.0;95.1
11:19:58.707755;861;180222;132276;131394;215779;524159;524159;71.0;0.0;95.1
11:19:58.715209;862;180194;132298;131403;215753;524159;524159;71.0;0.0;95.1
11:19:58.722006;863;180269;132321;131426;215825;524159;524159;71.0;0.0;95.1
11:19:58.900843;864;180418;132359;131451;215972;524159;524159;71.0;1051.1;95.1
11:19:58.913835;865;180597;132402;131476;216155;524159;524159;71.0;0.0;95.1
11:19:58.917831;866;180784;132430;131496;216345;524159;524159;71.0;0.0;95.1
11:19:58.922829;867;180963;132453;131504;216519;524159;524159;71.0;0.0;95.1
11:19:58.925829;868;181131;132472;131516;216699;524159;524159;71.0;0.0;95.1
11:19:59.094150;869;181320;132495;131540;216894;524159;524159;71.0;0.0;95.1
11:19:59.100990;870;181489;132513;131538;217058;524159;524159;71.0;0.0;95.1
11:19:59.107988;871;181365;132411;131468;216955;524159;524159;71.0;0.0;95.1
11:19:59.116065;872;180833;132268;131375;216498;524159;524159;71.0;0.0;95.1
11:19:59.123130;873;180321;132219;131341;216041;524159;524159;71.0;0.0;95.1
11:19:59.295381;874;180052;132223;131348;215785;524159;524159;71.0;0.0;95.1
11:19:59.304374;875;179992;132254;131374;215712;524159;524159;71.0;0.0;95.1
11:19:59.308370;876;180074;132302;131411;215777;524159;524159;71.0;0.0;95.1
11:19:59.316757;877;180148;132326;131421;215834;524159;524159;71.0;0.0;95.1
11:19:59.324166;878;180067;132292;131402;215766;524159;524159;71.0;0.0;95.1
11:19:59.494804;879;179916;132277;131393;215627;524159;524159;71.0;0.0;95.1
11:19:59.501810;880;179817;132275;131398;215525;524159;524159;71.0;0.0;95.1
11:19:59.514803;881;179829;132303;131410;215509;524159;524159;71.0;0.0;95.1
11:19:59.519799;882;179916;132328;131426;215571;524159;524159;71.0;0.0;95.1
11:19:59.524798;883;180046;132363;131447;215686;524159;524159;71.0;0.0;95.1
11:19:59.694806;884;180197;132392;131466;215835;524159;524159;71.0;0.0;95.1
11:19:59.701759;885;180344;132407;131475;215970;524159;524159;71.0;0.0;95.1
11:19:59.716754;886;180498;132438;131484;216111;524159;524159;71.0;0.0;95.1
11:19:59.725745;887;180650;132456;131500;216241;524159;524159;71.0;0.0;95.1
11:19:59.728744;888;180607;132392;131451;216182;524159;524159;71.0;0.0;95.1
11:19:59.894990;889;180047;132238;131334;215655;524159;524159;71.0;1011.7;95.1
11:19:59.901921;890;179310;132131;131271;214964;524159;524159;71.0;0.0;95.1
11:19:59.909867;891;178822;132103;131265;214478;524159;524159;71.0;0.0;95.1
11:19:59.916757;892;178557;132121;131275;214174;524159;524159;71.0;0.0;95.1
11:19:59.924216;893;178485;132163;131300;214037;524159;524159;71.0;0.0;95.1
11:20:00.094902;894;178499;132189;131326;213990;524159;524159;71.0;0.0;95.1
11:20:00.101811;895;178363;132169;131313;213823;524159;524159;71.0;0.0;95.1
11:20:00.108759;896;178135;132142;131289;213558;524159;524159;71.0;0.0;95.1
11:20:00.116759;897;177919;132136;131291;213318;524159;524159;71.0;0.0;95.1
11:20:00.124140;898;177820;132159;131304;213181;524159;524159;71.0;0.0;95.1
11:20:00.295852;899;177828;132188;131324;213132;524159;524159;71.0;0.0;95.1
11:20:00.305845;900;177887;132221;131348;213130;524159;524159;70.0;0.0;95.1
11:20:00.317836;901;177984;132248;131364;213162;524159;524159;70.0;0.0;95.1
11:20:00.326834;902;178072;132265;131376;213204;524159;524159;70.0;0.0;95.1
11:20:00.330831;903;178144;132282;131404;213242;524159;524159;70.0;0.0;95.1
11:20:00.495802;904;178232;132308;131410;213302;524159;524159;70.0;0.0;95.1
11:20:00.502809;905;178322;132314;131416;213359;524159;524159;70.0;0.0;95.1
11:20:00.516803;906;178140;132231;131356;213188;524159;524159;70.0;0.0;95.1
11:20:00.527797;907;177340;132050;131230;212426;524159;524159;70.0;0.0;95.1
11:20:00.533794;908;176447;131931;131148;211550;524159;524159;70.0;0.0;95.1
11:20:00.697797;909;175800;131891;131135;210854;524159;524159;70.0;0.0;95.1
11:20:00.703793;910;175369;131877;131143;210361;524159;524159;70.0;0.0;95.1
11:20:00.710789;911;175123;131883;131140;210024;524159;524159;70.0;878.0;95.1
11:20:00.717758;912;174983;131900;131158;209788;524159;524159;70.0;0.0;95.1
11:20:00.725811;913;174755;131887;131144;209508;524159;524159;70.0;0.0;95.1
11:20:00.897152;914;174423;131842;131114;209116;524159;524159;70.0;0.0;95.1
11:20:00.904812;915;174143;131817;131104;208775;524159;524159;70.0;0.0;95.1
11:20:00.918803;916;173987;131830;131111;208543;524159;524159;70.0;0.0;95.1
11:20:00.927793;917;173937;131850;131120;208423;524159;524159;70.0;0.0;95.1
11:20:00.931790;918;173967;131876;131128;208379;524159;524159;70.0;0.0;95.1
11:20:01.102918;919;174021;131904;131155;208369;524159;524159;70.0;0.0;95.1
11:20:01.115862;920;174082;131913;131156;208377;524159;524159;70.0;0.0;95.1
11:20:01.127852;921;174144;131934;131160;208383;524159;524159;70.0;0.0;95.1
11:20:01.133851;922;174213;131944;131159;208393;524159;524159;70.0;0.0;95.1
11:20:01.136845;923;174298;131956;131166;208438;524159;524159;70.0;0.0;95.1
11:20:01.297811;924;174408;131971;131171;208510;524159;524159;70.0;0.0;95.1
11:20:01.306804;925;174558;131990;131190;208618;524159;524159;70.0;0.0;95.1
11:20:01.312799;926;174726;132021;131202;208747;524159;524159;70.0;0.0;95.1
11:20:01.318795;927;174918;132051;131221;208902;524159;524159;70.0;0.0;95.1
11:20:01.325791;928;175121;132076;131234;209090;524159;524159;70.0;0.0;95.1
11:20:01.495955;929;175330;132099;131243;209268;524159;524159;70.0;738.0;95.1
11:20:01.503801;930;175551;132124;131264;209478;524159;524159;70.0;0.0;95.1
11:20:01.510707;931;175790;132156;131281;209696;524159;524159;70.0;0.0;95.1
11:20:01.517337;932;176032;132184;131293;209915;524159;524159;70.0;0.0;95.1
11:20:01.525539;933;176287;132204;131305;210149;524159;524159;70.0;0.0;95.1
11:20:01.696807;934;176273;132117;131233;210116;524159;524159;70.0;0.0;95.1
11:20:01.704803;935;175431;131858;131047;209347;524159;524159;70.0;0.0;95.1
11:20:01.712810;936;174340;131674;130930;208312;524159;524159;70.0;0.0;95.1
11:20:01.724798;937;173511;131595;130895;207464;524159;524159;70.0;0.0;95.1
11:20:01.730799;938;172941;131559;130876;206832;524159;524159;70.0;0.0;95.1
11:20:01.896660;939;172487;131536;130848;206305;524159;524159;70.0;0.0;95.1
11:20:01.903759;940;172154;131522;130846;205867;524159;524159;70.0;0.0;95.1
11:20:01.911753;941;171845;131500;130838;205464;524159;524159;70.0;0.0;95.1
11:20:01.918788;942;171465;131453;130809;204994;524159;524159;70.0;0.0;95.1
11:20:01.926547;943;171078;131418;130787;204539;524159;524159;70.0;0.0;95.1
11:20:02.098811;944;170797;131408;130780;204168;524159;524159;70.0;0.0;95.1
11:20:02.105809;945;170651;131418;130785;203932;524159;524159;70.0;0.0;95.1
11:20:02.111803;946;170601;131426;130793;203782;524159;524159;70.0;0.0;95.1
11:20:02.119758;947;170607;131448;130803;203689;524159;524159;70.0;699.2;95.1
11:20:02.128753;948;170626;131456;130801;203623;524159;524159;70.0;0.0;95.1
11:20:02.296860;949;170659;131466;130803;203582;524159;524159;70.0;0.0;95.1
11:20:02.303805;950;170699;131471;130806;203562;524159;524159;70.0;0.0;95.1
11:20:02.311801;951;170755;131483;130799;203555;524159;524159;70.0;0.0;95.1
11:20:02.318796;952;170864;131484;130795;203601;524159;524159;70.0;0.0;95.1
11:20:02.326790;953;171009;131492;130786;203665;524159;524159;70.0;0.0;95.1
11:20:02.498827;954;171193;131504;130784;203769;524159;524159;70.0;0.0;95.1
11:20:02.507825;955;171370;131521;130794;203879;524159;524159;69.0;0.0;95.1
11:20:02.514819;956;171586;131545;130816;204040;524159;524159;69.0;0.0;95.1
11:20:02.519884;957;171801;131572;130838;204218;524159;524159;69.0;0.0;95.1
11:20:02.526755;958;172039;131602;130850;204401;524159;524159;69.0;0.0;95.1
11:20:02.698054;959;172274;131629;130872;204601;524159;524159;69.0;0.0;95.1
11:20:02.705050;960;172537;131669;130894;204828;524159;524159;69.0;0.0;95.1
11:20:02.714169;961;172791;131689;130897;205045;524159;524159;69.0;0.0;95.1
11:20:02.723165;962;172656;131568;130813;204898;524159;524159;69.0;0.0;95.1
11:20:02.728155;963;171800;131337;130654;204094;524159;524159;69.0;0.0;95.1
11:20:02.898799;964;170885;131192;130573;203167;524159;524159;69.0;0.0;95.1
11:20:02.905795;965;170268;131142;130543;202467;524159;524159;69.0;720.8;95.1
11:20:02.912791;966;169898;131114;130530;201977;524159;524159;69.0;0.0;95.1
11:20:02.919786;967;169669;131108;130528;201608;524159;524159;69.0;0.0;95.1
11:20:02.927781;968;169549;131112;130541;201364;524159;524159;69.0;0.0;95.1
11:20:03.097804;969;169378;131088;130510;201094;524159;524159;69.0;0.0;95.1
11:20:03.106804;970;169126;131038;130481;200762;524159;524159;69.0;0.0;95.1
11:20:03.116797;971;168900;131020;130470;200426;524159;524159;69.0;0.0;95.1
11:20:03.122792;972;168796;131011;130477;200207;524159;524159;69.0;0.0;95.1
11:20:03.128787;973;168777;131037;130488;200092;524159;524159;69.0;0.0;95.0
11:20:03.298801;974;168851;131056;130496;200076;524159;524159;69.0;0.0;95.0
11:20:03.305803;975;168959;131082;130514;200108;524159;524159;69.0;0.0;95.0
11:20:03.313796;976;169092;131095;130520;200159;524159;524159;69.0;0.0;95.0
11:20:03.322791;977;169227;131102;130527;200238;524159;524159;69.0;0.0;95.0
11:20:03.328788;978;169348;131125;130528;200314;524159;524159;69.0;0.0;95.0
11:20:03.498814;979;169494;131135;130539;200409;524159;524159;69.0;0.0;95.0
11:20:03.505801;980;169678;131151;130558;200554;524159;524159;69.0;0.0;95.0
11:20:03.513806;981;169871;131188;130567;200715;524159;524159;69.0;0.0;95.0
11:20:03.520800;982;170102;131218;130582;200921;524159;524159;69.0;0.0;95.0
11:20:03.527800;983;170360;131244;130594;201146;524159;524159;69.0;0.0;95.0
11:20:03.698071;984;170617;131264;130619;201392;524159;524159;69.0;0.0;95.0
11:20:03.705808;985;170912;131305;130629;201670;524159;524159;69.0;0.0;95.0
11:20:03.712806;986;171194;131335;130658;201951;524159;524159;69.0;0.0;95.0
11:20:03.720808;987;171493;131370;130672;202240;524159;524159;69.0;0.0;95.0
11:20:03.728308;988;171799;131390;130688;202545;524159;524159;69.0;0.0;95.0
11:20:03.898800;989;171977;131356;130664;202707;524159;524159;69.0;0.0;95.0
11:20:03.906800;990;171505;131167;130527;202275;524159;524159;69.0;0.0;95.0
11:20:03.916794;991;170710;130996;130415;201505;524159;524159;69.0;0.0;95.0
11:20:03.924785;992;170157;130929;130389;200898;524159;524159;69.0;0.0;95.0
11:20:03.930421;993;169879;130922;130384;200529;524159;524159;69.0;0.0;95.0
11:20:04.107058;994;169767;130933;130401;200314;524159;524159;69.0;1125.1;95.0
11:20:04.120049;995;169802;130970;130415;200253;524159;524159;69.0;0.0;95.0
11:20:04.131044;996;169804;130956;130411;200191;524159;524159;69.0;0.0;95.0
11:20:04.136037;997;169676;130910;130382;200001;524159;524159;69.0;0.0;95.0
11:20:04.138036;998;169516;130887;130367;199767;524159;524159;69.0;0.0;95.0
11:20:04.298922;999;169448;130891;130379;199621;524159;524159;69.0;0.0;95.0
11:20:04.306186;1000;169504;130906;130378;199603;524159;524159;69.0;0.0;95.0
11:20:04.312812;1001;169640;130941;130402;199676;524159;524159;69.0;0.0;95.0
11:20:04.320807;1002;169831;130967;130418;199801;524159;524159;69.0;0.0;95.0
11:20:04.327804;1003;170030;130986;130433;199956;524159;524159;69.0;0.0;95.0
11:20:04.498189;1004;170237;131010;130446;200134;524159;524159;69.0;0.0;95.0
11:20:04.506091;1005;170438;131036;130452;200296;524159;524159;69.0;0.0;95.0
11:20:04.513105;1006;170654;131049;130460;200487;524159;524159;69.0;0.0;95.0
11:20:04.520106;1007;170864;131073;130482;200675;524159;524159;69.0;0.0;95.0
11:20:04.527806;1008;171121;131101;130500;200919;524159;524159;69.0;0.0;95.0
11:20:04.698814;1009;171387;131135;130525;201182;524159;524159;69.0;0.0;95.0
11:20:04.714805;1010;171678;131168;130542;201474;524159;524159;69.0;0.0;95.0
11:20:04.728797;1011;171987;131211;130569;201797;524159;524159;69.0;0.0;95.0
11:20:04.734794;1012;172320;131241;130582;202132;524159;524159;69.0;0.0;95.0
11:20:04.737789;1013;172668;131265;130588;202497;524159;524159;69.0;0.0;95.0
11:20:04.899654;1014;173025;131284;130590;202856;524159;524159;69.0;0.0;95.0
11:20:04.906646;1015;173347;131283;130588;203154;524159;524159;69.0;0.0;95.0
11:20:04.914804;1016;173223;131148;130488;203057;524159;524159;69.0;0.0;95.0
11:20:04.921806;1017;172574;130952;130358;202460;524159;524159;69.0;0.0;95.0
11:20:04.929651;1018;171976;130868;130313;201856;524159;524159;69.0;0.0;95.0
11:20:05.099808;1019;171702;130866;130343;201515;524159;524159;69.0;0.0;95.0
11:20:05.107804;1020;171635;130894;130374;201375;524159;524159;69.0;0.0;95.0
11:20:05.115809;1021;171709;130936;130411;201384;524159;524159;69.0;0.0;95.0
11:20:05.126798;1022;171820;130968;130439;201471;524159;524159;69.0;1111.0;95.0
11:20:05.130795;1023;171803;130943;130435;201445;524159;524159;69.0;0.0;95.0
11:20:05.299812;1024;171686;130908;130414;201327;524159;524159;69.0;0.0;95.0
11:20:05.313803;1025;171613;130908;130419;201235;524159;524159;69.0;0.0;95.0
11:20:05.326796;1026;171646;130925;130436;201245;524159;524159;69.0;0.0;95.0
11:20:05.334790;1027;171785;130959;130468;201376;524159;524159;69.0;0.0;95.0
11:20:05.337785;1028;171968;130990;130493;201550;524159;524159;69.0;0.0;95.0
11:20:05.506071;1029;172187;131023;130507;201763;524159;524159;69.0;0.0;95.0
11:20:05.516062;1030;172420;131048;130535;202000;524159;524159;69.0;0.0;95.0
11:20:05.520060;1031;172630;131080;130545;202204;524159;524159;69.0;0.0;95.0
11:20:05.523058;1032;172843;131098;130567;202417;524159;524159;69.0;0.0;95.0
11:20:05.529255;1033;173058;131124;130580;202635;524159;524159;69.0;0.0;95.0
11:20:05.700949;1034;173277;131143;130598;202859;524159;524159;69.0;0.0;95.0
11:20:05.709945;1035;173526;131182;130625;203135;524159;524159;69.0;0.0;95.0
11:20:05.720938;1036;173808;131220;130654;203452;524159;524159;69.0;0.0;95.0
11:20:05.726933;1037;174096;131249;130680;203767;524159;524159;69.0;0.0;95.0
11:20:05.730932;1038;174394;131281;130703;204086;524159;524159;69.0;0.0;95.0
11:20:05.904493;1039;174384;131202;130640;204104;524159;524159;69.0;0.0;95.0
11:20:05.916486;1040;173876;131047;130539;203656;524159;524159;69.0;0.0;95.0
11:20:05.930472;1041;173351;130950;130489;203157;524159;524159;69.0;0.0;95.0
11:20:05.935469;1042;173108;130947;130495;202906;524159;524159;69.0;0.0;95.0
11:20:05.938467;1043;173117;130973;130523;202858;524159;524159;69.0;0.0;95.0
11:20:06.099656;1044;173264;131026;130564;202983;524159;524159;69.0;0.0;95.0
11:20:06.107655;1045;173443;131055;130580;203157;524159;524159;69.0;0.0;95.0
11:20:06.115330;1046;173471;131043;130565;203198;524159;524159;69.0;0.0;95.0
11:20:06.121985;1047;173363;131010;130550;203096;524159;524159;69.0;0.0;95.0
11:20:06.129985;1048;173317;130998;130547;203059;524159;524159;69.0;0.0;95.0
11:20:06.301929;1049;173359;131019;130558;203109;524159;524159;69.0;1090.5;95.0
11:20:06.308924;1050;173534;131028;130547;203272;524159;524159;69.0;0.0;95.0
11:20:06.315800;1051;173748;131049;130567;203491;524159;524159;69.0;0.0;95.0
11:20:06.322808;1052;173976;131077;130584;203719;524159;524159;69.0;0.0;95.0
11:20:06.330332;1053;174216;131107;130585;203962;524159;524159;69.0;0.0;95.0
11:20:06.500799;1054;174450;131132;130596;204201;524159;524159;69.0;0.0;95.0
11:20:06.511798;1055;174686;131151;130601;204432;524159;524159;69.0;0.0;95.0
11:20:06.526787;1056;174901;131175;130625;204673;524159;524159;69.0;0.0;95.0
11:20:06.534784;1057;175159;131208;130649;204956;524159;524159;69.0;0.0;95.0
11:20:06.537777;1058;175378;131205;130635;205194;524159;524159;69.0;0.0;95.0
11:20:06.700804;1059;175179;131077;130544;205039;524159;524159;69.0;0.0;95.0
11:20:06.708799;1060;174588;130934;130452;204497;524159;524159;69.0;0.0;95.0
11:20:06.716793;1061;174120;130864;130419;204026;524159;524159;69.0;0.0;95.0
11:20:06.723757;1062;173916;130866;130420;203782;524159;524159;69.0;0.0;95.0
11:20:06.731004;1063;173935;130887;130451;203735;524159;524159;69.0;0.0;95.0
11:20:06.907089;1064;174100;130949;130483;203851;524159;524159;69.0;0.0;95.0
11:20:06.914081;1065;174211;130959;130487;203929;524159;524159;69.0;0.0;95.0
11:20:06.919079;1066;174142;130908;130461;203842;524159;524159;69.0;0.0;95.0
11:20:06.925074;1067;174005;130897;130454;203682;524159;524159;69.0;0.0;95.0
11:20:06.930983;1068;173956;130930;130481;203611;524159;524159;69.0;0.0;95.0
11:20:07.100932;1069;174011;130976;130531;203641;524159;524159;69.0;0.0;95.0
11:20:07.107821;1070;174134;131020;130586;203768;524159;524159;69.0;0.0;95.0
11:20:07.114988;1071;174306;131061;130602;203948;524159;524159;69.0;0.0;95.0
11:20:07.122008;1072;174495;131096;130629;204155;524159;524159;69.0;0.0;95.0
11:20:07.129983;1073;174666;131130;130657;204344;524159;524159;69.0;0.0;94.9
11:20:07.301806;1074;174838;131154;130673;204559;524159;524159;69.0;0.0;94.9
11:20:07.309797;1075;175023;131190;130696;204770;524159;524159;69.0;1054.3;94.9
11:20:07.316799;1076;175181;131181;130694;204940;524159;524159;69.0;0.0;94.9
11:20:07.325055;1077;174883;131046;130599;204677;524159;524159;69.0;0.0;94.9
11:20:07.331806;1078;174172;130884;130498;204003;524159;524159;69.0;0.0;94.9
11:20:07.501741;1079;173588;130821;130461;203407;524159;524159;69.0;0.0;94.9
11:20:07.508738;1080;173270;130792;130453;203033;524159;524159;69.0;0.0;94.9
11:20:07.517730;1081;173177;130819;130481;202878;524159;524159;69.0;0.0;94.9
11:20:07.525725;1082;173232;130868;130509;202883;524159;524159;69.0;0.0;94.9
11:20:07.532808;1083;173251;130877;130512;202893;524159;524159;69.0;0.0;94.9
11:20:07.700990;1084;173094;130819;130479;202726;524159;524159;69.0;0.0;94.9
11:20:07.709142;1085;172890;130802;130470;202503;524159;524159;69.0;0.0;94.9
11:20:07.715983;1086;172782;130809;130448;202373;524159;524159;69.0;0.0;94.9
11:20:07.722902;1087;172802;130833;130486;202351;524159;524159;69.0;0.0;94.9
11:20:07.730955;1088;172916;130866;130507;202432;524159;524159;69.0;0.0;94.9
11:20:07.901822;1089;173061;130908;130531;202558;524159;524159;69.0;0.0;94.9
11:20:07.910817;1090;173230;130921;130552;202712;524159;524159;69.0;0.0;94.9
11:20:07.917801;1091;173373;130953;130552;202856;524159;524159;69.0;0.0;94.9
11:20:07.925802;1092;173519;130972;130577;203008;524159;524159;69.0;0.0;94.9
11:20:07.932801;1093;173682;130995;130587;203159;524159;524159;69.0;0.0;94.9
11:20:08.110066;1094;173865;131035;130609;203336;524159;524159;69.0;0.0;94.9
11:20:08.125059;1095;173924;130992;130588;203409;524159;524159;69.0;0.0;94.9
11:20:08.129054;1096;173379;130807;130452;202904;524159;524159;69.0;0.0;94.9
11:20:08.134054;1097;172460;130623;130349;201993;524159;524159;69.0;0.0;94.9
11:20:08.137049;1098;171751;130549;130299;201246;524159;524159;69.0;921.8;94.9
11:20:08.309065;1099;171321;130525;130291;200745;524159;524159;69.0;0.0;94.9
11:20:08.324055;1100;171075;130526;130296;200419;524159;524159;69.0;0.0;94.9
11:20:08.334053;1101;170980;130542;130316;200255;524159;524159;69.0;0.0;94.9
11:20:08.338045;1102;170841;130531;130311;200067;524159;524159;69.0;0.0;94.9
11:20:08.340044;1103;170555;130482;130274;199749;524159;524159;69.0;0.0;94.9
11:20:08.502800;1104;170252;130456;130257;199417;524159;524159;69.0;0.0;94.9
11:20:08.509796;1105;170074;130458;130254;199193;524159;524159;69.0;0.0;94.9
11:20:08.517808;1106;170031;130484;130284;199104;524159;524159;69.0;0.0;94.9
11:20:08.524796;1107;170067;130518;130290;199097;524159;524159;69.0;0.0;94.9
11:20:08.531700;1108;170156;130534;130308;199153;524159;524159;69.0;0.0;94.9
11:20:08.703284;1109;170236;130552;130317;199208;524159;524159;69.0;0.0;94.9
11:20:08.709799;1110;170325;130567;130317;199274;524159;524159;69.0;0.0;94.9
11:20:08.718807;1111;170398;130567;130323;199332;524159;524159;69.0;0.0;94.9
11:20:08.727795;1112;170485;130583;130340;199409;524159;524159;69.0;0.0;94.9
11:20:08.733790;1113;170592;130607;130353;199507;524159;524159;69.0;0.0;94.9
11:20:08.903795;1114;170736;130633;130359;199652;524159;524159;69.0;0.0;94.9
11:20:08.912788;1115;170895;130663;130373;199822;524159;524159;69.0;0.0;94.9
11:20:08.918784;1116;171092;130686;130395;200023;524159;524159;69.0;0.0;94.9
11:20:08.925798;1117;171295;130714;130411;200242;524159;524159;69.0;788.6;94.9
11:20:08.933807;1118;171524;130754;130429;200481;524159;524159;69.0;0.0;94.9
11:20:09.108372;1119;171748;130775;130437;200731;524159;524159;69.0;0.0;94.9
11:20:09.117363;1120;171996;130810;130469;200997;524159;524159;69.0;0.0;94.9
11:20:09.120361;1121;172237;130837;130483;201280;524159;524159;69.0;0.0;94.9
11:20:09.125358;1122;172512;130868;130499;201573;524159;524159;69.0;0.0;94.9
11:20:09.131983;1123;172705;130860;130481;201785;524159;524159;69.0;0.0;94.9
11:20:09.303799;1124;172162;130637;130331;201315;524159;524159;69.0;0.0;94.9
11:20:09.311796;1125;170969;130360;130154;200206;524159;524159;69.0;0.0;94.9
11:20:09.318800;1126;169953;130217;130080;199175;524159;524159;69.0;0.0;94.9
11:20:09.326795;1127;169247;130156;130047;198408;524159;524159;69.0;0.0;94.9
11:20:09.334383;1128;168735;130108;130020;197810;524159;524159;69.0;0.0;94.9
11:20:09.502801;1129;168373;130095;130018;197335;524159;524159;69.0;0.0;94.9
11:20:09.513800;1130;168092;130080;130006;196968;524159;524159;69.0;0.0;94.9
11:20:09.526792;1131;167759;130035;129981;196562;524159;524159;69.0;0.0;94.9
11:20:09.534788;1132;167337;129980;129944;196062;524159;524159;69.0;0.0;94.9
11:20:09.537781;1133;167023;129957;129931;195669;524159;524159;69.0;0.0;94.9
11:20:09.708123;1134;166846;129967;129933;195420;524159;524159;69.0;0.0;94.9
11:20:09.718113;1135;166778;129980;129945;195285;524159;524159;69.0;724.7;94.9
11:20:09.724112;1136;166797;130000;129948;195235;524159;524159;69.0;0.0;94.9
11:20:09.730104;1137;166827;130017;129947;195221;524159;524159;69.0;0.0;94.9
11:20:09.735104;1138;166858;130020;129955;195209;524159;524159;69.0;0.0;94.9
11:20:09.904820;1139;166883;130023;129950;195227;524159;524159;69.0;0.0;94.9
11:20:09.910794;1140;166925;130039;129959;195258;524159;524159;69.0;0.0;94.9
11:20:09.917799;1141;167007;130055;129962;195340;524159;524159;69.0;0.0;94.9
11:20:09.925802;1142;167126;130080;129977;195446;524159;524159;69.0;0.0;94.9
11:20:09.932795;1143;167285;130106;129990;195608;524159;524159;69.0;0.0;94.9
11:20:10.103799;1144;167482;130141;129997;195809;524159;524159;69.0;0.0;94.9
11:20:10.111799;1145;167691;130164;130018;196037;524159;524159;69.0;0.0;94.9
11:20:10.118799;1146;167929;130192;130028;196287;524159;524159;69.0;0.0;94.9
11:20:10.126797;1147;168191;130227;130049;196559;524159;524159;69.0;0.0;94.9
11:20:10.134784;1148;168453;130259;130061;196830;524159;524159;69.0;0.0;94.9
11:20:10.304798;1149;168736;130285;130077;197124;524159;524159;69.0;0.0;94.9
11:20:10.311795;1150;168999;130301;130091;197382;524159;524159;69.0;0.0;94.9
11:20:10.319800;1151;168765;130162;129980;197206;524159;524159;69.0;0.0;94.9
11:20:10.326793;1152;167734;129888;129799;196279;524159;524159;69.0;0.0;94.9
11:20:10.334777;1153;166698;129724;129713;195245;524159;524159;69.0;0.0;94.9
11:20:10.511719;1154;166025;129658;129682;194513;524159;524159;69.0;755.4;94.9
11:20:10.524712;1155;165594;129614;129653;193981;524159;524159;69.0;0.0;94.9
11:20:10.528706;1156;165322;129612;129652;193591;524159;524159;69.0;0.0;94.9
11:20:10.532704;1157;165186;129621;129653;193351;524159;524159;69.0;0.0;94.9
11:20:10.535703;1158;164978;129595;129631;193074;524159;524159;69.0;0.0;94.9
11:20:10.706513;1159;164672;129527;129592;192695;524159;524159;69.0;0.0;94.9
11:20:10.713510;1160;164420;129505;129575;192366;524159;524159;69.0;0.0;94.9
11:20:10.720793;1161;164325;129514;129580;192196;524159;524159;69.0;0.0;94.9
11:20:10.732795;1162;164343;129542;129594;192125;524159;524159;69.0;0.0;94.9
11:20:10.738789;1163;164429;129567;129607;192152;524159;524159;69.0;0.0;94.9
11:20:10.743784;1164;164543;129591;129618;192226;524159;524159;69.0;0.0;94.9
11:20:11.117762;1165;164681;129616;129629;192332;524159;524159;69.0;0.0;94.9
11:20:11.126756;1166;164802;129628;129645;192438;524159;524159;69.0;0.0;94.9
11:20:11.130754;1167;164925;129644;129641;192544;524159;524159;69.0;0.0;94.9
11:20:11.134751;1168;165070;129661;129648;192682;524159;524159;69.0;0.0;94.9
11:20:11.139748;1169;165263;129695;129664;192871;524159;524159;69.0;0.0;94.9
11:20:11.146747;1170;165476;129712;129680;193097;524159;524159;69.0;0.0;94.9
11:20:11.154977;1171;165721;129759;129716;193360;524159;524159;69.0;0.0;94.9
11:20:11.161981;1172;165984;129802;129730;193648;524159;524159;69.0;0.0;94.9
11:20:11.169820;1173;166254;129845;129766;193949;524159;524159;69.0;0.0;94.9
11:20:11.176809;1174;166543;129880;129790;194281;524159;524159;69.0;0.0;94.9
11:20:11.510783;1175;166853;129920;129809;194608;524159;524159;69.0;0.0;94.9
11:20:11.517784;1176;167195;129958;129820;194979;524159;524159;69.0;0.0;94.9
11:20:11.526778;1177;167420;129961;129821;195236;524159;524159;69.0;0.0;94.9
11:20:11.533776;1178;166971;129758;129687;194901;524159;524159;69.0;0.0;94.9
11:20:11.541756;1179;165972;129521;129538;194012;524159;524159;69.0;0.0;94.9
11:20:11.549181;1180;165182;129431;129490;193248;524159;524159;69.0;0.0;94.9
11:20:11.556753;1181;164757;129407;129490;192779;524159;524159;69.0;0.0;94.9
11:20:11.563802;1182;164556;129416;129486;192512;524159;524159;69.0;0.0;94.9
11:20:11.571966;1183;164520;129445;129506;192394;524159;524159;69.0;1129.7;94.9
11:20:11.579150;1184;164519;129449;129515;192325;524159;524159;69.0;0.0;94.9
11:20:11.911482;1185;164371;129403;129483;192134;524159;524159;69.0;0.0;94.9
11:20:11.917800;1186;164153;129382;129458;191862;524159;524159;69.0;0.0;94.9
11:20:11.931795;1187;164031;129382;129466;191694;524159;524159;69.0;0.0;94.9
11:20:11.938789;1188;164057;129419;129479;191687;524159;524159;69.0;0.0;94.9
11:20:11.943783;1189;164185;129447;129505;191781;524159;524159;69.0;0.0;94.9
11:20:11.948783;1190;164378;129476;129519;191944;524159;524159;69.0;0.0;94.9
11:20:11.954780;1191;164587;129502;129541;192134;524159;524159;69.0;0.0;94.9
11:20:11.962748;1192;164785;129548;129550;192336;524159;524159;69.0;0.0;94.9
11:20:11.969750;1193;164970;129562;129560;192528;524159;524159;69.0;0.0;94.9
11:20:11.976776;1194;165161;129590;129573;192732;524159;524159;69.0;0.0;94.9
11:20:12.310793;1195;165364;129615;129597;192957;524159;524159;69.0;0.0;94.9
11:20:12.318797;1196;165607;129656;129616;193235;524159;524159;69.0;0.0;94.9
11:20:12.325803;1197;165870;129690;129644;193532;524159;524159;69.0;0.0;94.9
11:20:12.333747;1198;166176;129728;129667;193872;524159;524159;69.0;0.0;94.9
11:20:12.340346;1199;166494;129775;129684;194228;524159;524159;69.0;0.0;94.9
11:20:12.348467;1200;166818;129817;129717;194586;524159;524159;69.0;0.0;94.9
11:20:12.355804;1201;167158;129851;129738;194957;524159;524159;69.0;0.0;94.9
11:20:12.363177;1202;167515;129889;129763;195339;524159;524159;69.0;0.0;94.9
11:20:12.370179;1203;167861;129921;129773;195710;524159;524159;69.0;0.0;94.9
11:20:12.377807;1204;167748;129802;129696;195690;524159;524159;69.0;0.0;94.9
11:20:12.711799;1205;166941;129569;129541;195034;524159;524159;69.0;0.0;94.9
11:20:12.718795;1206;166137;129448;129472;194305;524159;524159;69.0;0.0;94.9
11:20:12.726789;1207;165724;129437;129473;193879;524159;524159;69.0;0.0;94.9
11:20:12.734796;1208;165593;129451;129488;193685;524159;524159;69.0;0.0;94.9
11:20:12.741797;1209;165639;129488;129509;193680;524159;524159;69.0;0.0;94.9
11:20:12.749804;1210;165757;129520;129542;193757;524159;524159;69.0;0.0;94.9
11:20:12.756804;1211;165736;129507;129526;193728;524159;524159;69.0;1092.1;94.9
11:20:12.764805;1212;165595;129474;129503;193582;524159;524159;69.0;0.0;94.9
11:20:12.772941;1213;165486;129471;129510;193456;524159;524159;69.0;0.0;94.9
11:20:12.779912;1214;165536;129493;129520;193490;524159;524159;69.0;0.0;94.9
11:20:13.111802;1215;165679;129532;129541;193624;524159;524159;69.0;0.0;94.9
11:20:13.120799;1216;165894;129574;129572;193844;524159;524159;69.0;0.0;94.9
11:20:13.134791;1217;166138;129622;129598;194088;524159;524159;69.0;0.0;94.9
11:20:13.139784;1218;166371;129658;129613;194339;524159;524159;69.0;0.0;94.9
11:20:13.143778;1219;166602;129687;129633;194586;524159;524159;69.0;0.0;94.9
11:20:13.149251;1220;166824;129713;129652;194841;524159;524159;69.0;0.0;94.9
11:20:13.155672;1221;167068;129747;129666;195104;524159;524159;69.0;0.0;94.9
11:20:13.162979;1222;167327;129790;129692;195397;524159;524159;69.0;0.0;94.9
11:20:13.170975;1223;167623;129819;129714;195720;524159;524159;69.0;0.0;94.9
11:20:13.177819;1224;167949;129865;129733;196084;524159;524159;69.0;0.0;94.9
11:20:13.511709;1225;168268;129903;129767;196447;524159;524159;69.0;0.0;94.9
11:20:13.519133;1226;168620;129949;129798;196840;524159;524159;69.0;0.0;94.9
11:20:13.526819;1227;168963;129990;129820;197236;524159;524159;69.0;0.0;94.9
11:20:13.533974;1228;169325;130045;129847;197647;524159;524159;69.0;0.0;94.9
11:20:13.540978;1229;169677;130071;129873;198028;524159;524159;69.0;0.0;94.9
11:20:13.547806;1230;169675;130001;129821;198124;524159;524159;69.0;0.0;94.9
11:20:13.555804;1231;168966;129767;129658;197599;524159;524159;69.0;0.0;94.9
11:20:13.562930;1232;168181;129636;129591;196946;524159;524159;69.0;0.0;94.9
11:20:13.569979;1233;167770;129621;129595;196592;524159;524159;69.0;0.0;94.9
11:20:13.577774;1234;167663;129647;129612;196477;524159;524159;69.0;0.0;94.9
11:20:13.912795;1235;167748;129692;129646;196542;524159;524159;69.0;0.0;94.9
11:20:13.919803;1236;167902;129737;129674;196695;524159;524159;69.0;0.0;94.9
11:20:13.927802;1237;167929;129735;129669;196738;524159;524159;69.0;1060.7;94.9
11:20:13.934800;1238;167798;129702;129647;196657;524159;524159;69.0;0.0;94.9
11:20:13.943795;1239;167686;129703;129646;196579;524159;524159;69.0;0.0;94.9
11:20:13.950993;1240;167704;129725;129667;196621;524159;524159;69.0;0.0;94.9
11:20:13.957806;1241;167852;129766;129693;196788;524159;524159;69.0;0.0;94.9
11:20:13.965820;1242;168061;129811;129716;197009;524159;524159;69.0;0.0;94.9
11:20:13.972814;1243;168306;129851;129753;197285;524159;524159;69.0;0.0;94.9
11:20:13.979774;1244;168547;129897;129769;197549;524159;524159;69.0;0.0;94.9
11:20:14.108575;1245;168772;129932;129792;197819;524159;524159;69.0;0.0;94.9
11:20:14.121567;1246;168998;129963;129806;198090;524159;524159;69.0;0.0;94.9
11:20:14.127563;1247;169231;129982;129819;198351;524159;524159;69.0;0.0;94.9
11:20:14.130561;1248;169486;130016;129848;198643;524159;524159;69.0;0.0;94.9
11:20:14.137804;1249;169754;130062;129864;198961;524159;524159;69.0;0.0;94.9
11:20:14.314803;1250;170059;130105;129889;199314;524159;524159;69.0;0.0;94.9
11:20:14.325796;1251;170364;130148;129928;199673;524159;524159;69.0;0.0;94.9
11:20:14.334790;1252;170682;130197;129952;200038;524159;524159;69.0;0.0;94.9
11:20:14.338790;1253;171042;130240;129982;200439;524159;524159;69.0;0.0;94.9
11:20:14.342784;1254;171392;130283;130005;200835;524159;524159;69.0;0.0;94.9
11:20:14.506804;1255;171697;130311;130028;201180;524159;524159;69.0;0.0;94.9
11:20:14.514977;1256;171517;130184;129927;201122;524159;524159;69.0;0.0;94.9
11:20:14.521978;1257;170706;129961;129793;200509;524159;524159;69.0;0.0;94.9
11:20:14.528979;1258;170023;129873;129743;199953;524159;524159;69.0;0.0;94.9
11:20:14.536820;1259;169699;129874;129748;199665;524159;524159;69.0;0.0;94.9
11:20:14.708797;1260;169647;129911;129780;199600;524159;524159;69.0;0.0;94.9
11:20:14.715793;1261;169772;129963;129826;199705;524159;524159;69.0;0.0;94.9
11:20:14.723794;1262;169914;129999;129841;199838;524159;524159;69.0;0.0;94.9
11:20:14.730974;1263;169875;129975;129825;199826;524159;524159;69.0;1049.6;94.9
11:20:14.737817;1264;169738;129952;129805;199728;524159;524159;69.0;0.0;94.9
11:20:14.909884;1265;169657;129949;129806;199667;524159;524159;69.0;0.0;94.9
11:20:14.915879;1266;169709;129974;129831;199703;524159;524159;69.0;0.0;94.9
11:20:14.923875;1267;169864;130014;129849;199849;524159;524159;69.0;0.0;94.9
11:20:14.930794;1268;170082;130051;129881;200062;524159;524159;69.0;0.0;94.9
11:20:14.938795;1269;170309;130095;129909;200304;524159;524159;69.0;0.0;94.9
11:20:15.112129;1270;170530;130123;129921;200552;524159;524159;69.0;0.0;94.9
11:20:15.119069;1271;170732;130128;129908;200785;524159;524159;69.0;0.0;94.9
11:20:15.126065;1272;170947;130138;129913;201025;524159;524159;69.0;0.0;94.9
11:20:15.132101;1273;171149;130151;129922;201256;524159;524159;69.0;0.0;94.9
11:20:15.138059;1274;171370;130173;129928;201509;524159;524159;69.0;0.0;94.9
11:20:15.310264;1275;171632;130198;129930;201813;524159;524159;69.0;0.0;94.9
11:20:15.316259;1276;171909;130234;129958;202123;524159;524159;69.0;0.0;94.9
11:20:15.323800;1277;172201;130274;129982;202452;524159;524159;69.0;0.0;94.9
11:20:15.330790;1278;172519;130326;130022;202810;524159;524159;69.0;0.0;94.9
11:20:15.338790;1279;172829;130374;130060;203164;524159;524159;69.0;0.0;94.9
11:20:15.507814;1280;172896;130347;130050;203301;524159;524159;69.0;0.0;94.9
11:20:15.514975;1281;172281;130165;129934;202885;524159;524159;69.0;0.0;94.9
11:20:15.522949;1282;171513;130039;129870;202301;524159;524159;69.0;0.0;94.9
11:20:15.529746;1283;171083;130025;129876;201957;524159;524159;69.0;0.0;94.9
11:20:15.536909;1284;170987;130067;129901;201873;524159;524159;69.0;0.0;94.9
11:20:15.715593;1285;171111;130118;129952;201995;524159;524159;69.0;0.0;94.9
11:20:15.730583;1286;171314;130165;129981;202185;524159;524159;69.0;0.0;94.9
11:20:15.740579;1287;171355;130168;129976;202246;524159;524159;69.0;0.0;94.9
11:20:15.745572;1288;171205;130128;129948;202161;524159;524159;69.0;0.0;94.9
11:20:15.747570;1289;171078;130126;129960;202074;524159;524159;69.0;1041.6;94.9
11:20:15.909807;1290;171070;130147;129963;202087;524159;524159;69.0;0.0;94.9
11:20:15.916807;1291;171206;130181;129995;202213;524159;524159;69.0;0.0;94.9
11:20:15.925228;1292;171405;130231;130027;202415;524159;524159;69.0;0.0;94.9
11:20:15.932098;1293;171625;130274;130047;202650;524159;524159;69.0;0.0;94.9
11:20:15.939542;1294;171843;130304;130079;202886;524159;524159;69.0;0.0;94.9
11:20:16.111936;1295;172043;130334;130091;203101;524159;524159;69.0;0.0;94.9
11:20:16.126927;1296;172241;130362;130107;203319;524159;524159;69.0;0.0;94.9
11:20:16.136919;1297;172436;130390;130127;203544;524159;524159;69.0;0.0;94.9
11:20:16.139918;1298;172655;130431;130153;203781;524159;524159;69.0;0.0;94.9
11:20:16.143914;1299;172905;130467;130182;204075;524159;524159;69.0;0.0;94.9
11:20:16.309805;1300;173191;130511;130205;204398;524159;524159;69.0;0.0;94.9
11:20:16.316800;1301;173445;130531;130220;204681;524159;524159;69.0;0.0;94.9
11:20:16.325799;1302;173239;130417;130141;204578;524159;524159;69.0;0.0;94.9
11:20:16.333795;1303;172527;130257;130034;204067;524159;524159;69.0;0.0;94.9
11:20:16.340793;1304;171938;130187;130001;203620;524159;524159;69.0;0.0;94.9
11:20:16.510222;1305;171691;130202;130019;203404;524159;524159;69.0;0.0;94.9
11:20:16.517796;1306;171727;130251;130046;203429;524159;524159;69.0;0.0;94.9
11:20:16.525266;1307;171928;130323;130092;203613;524159;524159;69.0;0.0;94.9
11:20:16.532424;1308;172081;130326;130098;203754;524159;524159;69.0;0.0;94.9
11:20:16.539425;1309;172004;130305;130079;203720;524159;524159;69.0;0.0;94.9
11:20:16.710062;1310;171840;130280;130056;203614;524159;524159;69.0;0.0;94.9
11:20:16.716798;1311;171783;130290;130078;203575;524159;524159;69.0;0.0;94.9
11:20:16.724790;1312;171848;130321;130093;203632;524159;524159;69.0;0.0;94.9
11:20:16.731795;1313;172004;130366;130120;203787;524159;524159;69.0;0.0;94.9
11:20:16.740174;1314;172203;130420;130152;204007;524159;524159;69.0;0.0;94.9
11:20:16.910791;1315;172415;130457;130181;204233;524159;524159;69.0;1029.3;94.9
11:20:16.917796;1316;172614;130494;130202;204454;524159;524159;69.0;0.0;94.9
11:20:16.924791;1317;172807;130520;130217;204668;524159;524159;69.0;0.0;94.9
11:20:16.932790;1318;173011;130542;130238;204900;524159;524159;69.0;0.0;94.9
11:20:16.943783;1319;173215;130590;130263;205126;524159;524159;69.0;0.0;94.9
11:20:17.112400;1320;173159;130522;130206;205139;524159;524159;69.0;0.0;94.9
11:20:17.125392;1321;172478;130345;130085;204623;524159;524159;69.0;0.0;94.9
11:20:17.130388;1322;171708;130235;130034;203982;524159;524159;69.0;0.0;94.9
11:20:17.135385;1323;171269;130235;130025;203589;524159;524159;69.0;0.0;94.9
11:20:17.140382;1324;171111;130251;130047;203407;524159;524159;69.0;0.0;94.9
11:20:17.309818;1325;171202;130322;130083;203464;524159;524159;69.0;0.0;94.9
11:20:17.316790;1326;171311;130359;130117;203555;524159;524159;69.0;0.0;94.9
11:20:17.324797;1327;171225;130334;130098;203510;524159;524159;69.0;0.0;94.9
11:20:17.331798;1328;170977;130301;130077;203300;524159;524159;69.0;0.0;94.9
11:20:17.339788;1329;170817;130304;130081;203145;524159;524159;69.0;0.0;94.9
11:20:17.510010;1330;170795;130328;130100;203118;524159;524159;69.0;0.0;94.9
11:20:17.516907;1331;170891;130382;130124;203184;524159;524159;69.0;0.0;94.9
11:20:17.524009;1332;171052;130415;130150;203324;524159;524159;69.0;0.0;94.9
11:20:17.532003;1333;171226;130451;130176;203484;524159;524159;69.0;0.0;94.9
11:20:17.539744;1334;171400;130480;130199;203650;524159;524159;69.0;0.0;94.9
11:20:17.710796;1335;171572;130517;130218;203818;524159;524159;68.0;0.0;94.9
11:20:17.718794;1336;171735;130539;130228;203988;524159;524159;68.0;0.0;94.9
11:20:17.726787;1337;171873;130559;130244;204141;524159;524159;68.0;0.0;94.9
11:20:17.733906;1338;171555;130447;130160;203944;524159;524159;68.0;0.0;94.9
11:20:17.741704;1339;170563;130237;130026;203129;524159;524159;68.0;973.7;94.9
11:20:17.911007;1340;169606;130123;129958;202261;524159;524159;68.0;0.0;94.9
11:20:17.920002;1341;169015;130109;129951;201703;524159;524159;68.0;0.0;94.9
11:20:17.928996;1342;168704;130125;129973;201359;524159;524159;68.0;0.0;94.9
11:20:17.935991;1343;168600;130167;129995;201211;524159;524159;68.0;0.0;94.9
11:20:17.940227;1344;168547;130186;130009;201115;524159;524159;68.0;0.0;94.9
11:20:18.110768;1345;168313;130155;129985;200896;524159;524159;68.0;0.0;94.9
11:20:18.117795;1346;167965;130120;129970;200573;524159;524159;68.0;0.0;94.9
11:20:18.126794;1347;167728;130113;129965;200335;524159;524159;68.0;0.0;94.9
11:20:18.140792;1348;167657;130141;129975;200232;524159;524159;68.0;0.0;95.0
11:20:18.145776;1349;167697;130178;129991;200223;524159;524159;68.0;0.0;95.0
11:20:18.310792;1350;167810;130210;130017;200295;524159;524159;68.0;0.0;95.0
11:20:18.319795;1351;167950;130232;130033;200395;524159;524159;68.0;0.0;95.0
11:20:18.333782;1352;168066;130253;130038;200487;524159;524159;68.0;0.0;95.0
11:20:18.344776;1353;168180;130282;130050;200593;524159;524159;68.0;0.0;95.0
11:20:18.350771;1354;168299;130293;130065;200707;524159;524159;68.0;0.0;95.0
11:20:18.510701;1355;168458;130327;130071;200855;524159;524159;68.0;0.0;95.0
11:20:18.517694;1356;168638;130346;130086;201020;524159;524159;68.0;0.0;95.0
11:20:18.524691;1357;168863;130380;130107;201220;524159;524159;68.0;0.0;95.0
11:20:18.532763;1358;169111;130422;130121;201455;524159;524159;68.0;0.0;95.0
11:20:18.539769;1359;169375;130450;130135;201702;524159;524159;68.0;0.0;95.0
11:20:18.712786;1360;169661;130482;130168;201967;524159;524159;68.0;861.7;95.0
11:20:18.718781;1361;169958;130516;130178;202252;524159;524159;68.0;0.0;95.0
11:20:18.727747;1362;170261;130560;130200;202565;524159;524159;68.0;0.0;95.0
11:20:18.741736;1363;170448;130538;130177;202752;524159;524159;68.0;0.0;95.0
11:20:18.746733;1364;169735;130299;130012;202229;524159;524159;68.0;0.0;95.0
11:20:18.910809;1365;168351;130030;129836;201094;524159;524159;68.0;0.0;95.0
11:20:18.918791;1366;167224;129905;129769;200069;524159;524159;68.0;0.0;95.0
11:20:18.926813;1367;166496;129868;129760;199339;524159;524159;68.0;0.0;95.0
11:20:18.934222;1368;166008;129855;129748;198815;524159;524159;68.0;0.0;95.0
11:20:18.940974;1369;165669;129850;129743;198421;524159;524159;68.0;0.0;95.0
11:20:19.111793;1370;165426;129843;129743;198128;524159;524159;68.0;0.0;95.0
11:20:19.118798;1371;165080;129808;129723;197755;524159;524159;68.0;0.0;95.0
11:20:19.126788;1372;164708;129766;129685;197351;524159;524159;68.0;0.0;95.0
11:20:19.134790;1373;164418;129748;129683;197016;524159;524159;68.0;0.0;95.0
11:20:19.141975;1374;164290;129766;129694;196827;524159;524159;68.0;0.0;95.0
11:20:19.316798;1375;164293;129795;129695;196752;524159;524159;68.0;0.0;95.0
11:20:19.329792;1376;164378;129818;129717;196771;524159;524159;68.0;0.0;95.0
11:20:19.341786;1377;164473;129844;129722;196794;524159;524159;68.0;0.0;95.0
11:20:19.346780;1378;164591;129859;129732;196862;524159;524159;68.0;737.5;95.0
11:20:19.349780;1379;164682;129876;129734;196897;524159;524159;68.0;0.0;95.0
11:20:19.512105;1380;164819;129888;129742;196975;524159;524159;68.0;0.0;95.0
11:20:19.519797;1381;164971;129902;129740;197092;524159;524159;68.0;0.0;95.0
11:20:19.526970;1382;165161;129931;129764;197236;524159;524159;68.0;0.0;95.0
11:20:19.533796;1383;165396;129959;129777;197447;524159;524159;68.0;0.0;95.0
11:20:19.540790;1384;165647;129997;129799;197678;524159;524159;68.0;0.0;95.0
11:20:19.716937;1385;165924;130028;129814;197942;524159;524159;68.0;0.0;95.0
11:20:19.730928;1386;166220;130054;129838;198197;524159;524159;68.0;0.0;95.0
11:20:19.736923;1387;166541;130090;129854;198492;524159;524159;68.0;0.0;95.0
11:20:19.740920;1388;166847;130129;129880;198796;524159;524159;68.0;0.0;95.0
11:20:19.743920;1389;167184;130172;129888;199119;524159;524159;68.0;0.0;95.0
11:20:19.918957;1390;167451;130178;129893;199369;524159;524159;68.0;0.0;95.0
11:20:19.933946;1391;167085;130004;129778;199118;524159;524159;68.0;0.0;95.0
11:20:19.944942;1392;165920;129746;129608;198177;524159;524159;68.0;0.0;95.0
11:20:19.947939;1393;164862;129605;129534;197214;524159;524159;68.0;0.0;95.0
11:20:19.949938;1394;164244;129584;129516;196594;524159;524159;68.0;0.0;95.0
11:20:20.112792;1395;163883;129571;129507;196161;524159;524159;68.0;0.0;95.0
11:20:20.120793;1396;163691;129573;129513;195881;524159;524159;68.0;717.8;95.0
11:20:20.133785;1397;163595;129587;129530;195719;524159;524159;68.0;0.0;95.0
11:20:20.145777;1398;163431;129556;129502;195499;524159;524159;68.0;0.0;95.0
11:20:20.152773;1399;163168;129520;129480;195199;524159;524159;68.0;0.0;95.0
11:20:20.312792;1400;162976;129513;129479;194944;524159;524159;68.0;0.0;95.0
11:20:20.319802;1401;162929;129530;129480;194835;524159;524159;68.0;0.0;95.0
11:20:20.327794;1402;163006;129561;129497;194867;524159;524159;68.0;0.0;95.0
11:20:20.334788;1403;163152;129590;129519;194967;524159;524159;68.0;0.0;95.0
11:20:20.341974;1404;163338;129624;129533;195113;524159;524159;68.0;0.0;95.0
11:20:20.512826;1405;163533;129647;129553;195283;524159;524159;67.0;0.0;95.0
11:20:20.520821;1406;163721;129670;129562;195457;524159;524159;67.0;0.0;95.0
11:20:20.527817;1407;163917;129691;129572;195635;524159;524159;67.0;0.0;95.0
11:20:20.535814;1408;164129;129718;129582;195834;524159;524159;67.0;0.0;95.0
11:20:20.542810;1409;164378;129744;129596;196053;524159;524159;67.0;0.0;95.0
11:20:20.714053;1410;164671;129777;129623;196327;524159;524159;67.0;0.0;95.0
11:20:20.720788;1411;164982;129816;129640;196631;524159;524159;67.0;0.0;95.0
11:20:20.728797;1412;165317;129858;129662;196960;524159;524159;67.0;0.0;95.0
11:20:20.742789;1413;165662;129894;129690;197303;524159;524159;67.0;0.0;95.0
11:20:20.748783;1414;166008;129934;129710;197658;524159;524159;67.0;0.0;95.0
11:20:20.912849;1415;166383;129970;129730;198027;524159;524159;67.0;0.0;95.0
11:20:20.919787;1416;166728;130001;129749;198352;524159;524159;67.0;0.0;95.0
11:20:20.928787;1417;166675;129904;129682;198366;524159;524159;67.0;0.0;95.0
11:20:20.935793;1418;165797;129664;129516;197696;524159;524159;67.0;0.0;95.0
11:20:20.942787;1419;164867;129519;129437;196902;524159;524159;67.0;0.0;95.0
11:20:21.115793;1420;164333;129496;129427;196389;524159;524159;67.0;0.0;95.0
11:20:21.126785;1421;164107;129506;129431;196120;524159;524159;67.0;0.0;95.0
11:20:21.132781;1422;164074;129529;129455;196014;524159;524159;67.0;0.0;95.0
11:20:21.139776;1423;164151;129563;129483;196012;524159;524159;67.0;1030.2;95.0
11:20:21.145770;1424;164122;129557;129467;195954;524159;524159;67.0;0.0;95.0
11:20:21.313792;1425;163959;129514;129434;195760;524159;524159;67.0;0.0;95.0
11:20:21.323787;1426;163842;129495;129431;195607;524159;524159;67.0;0.0;95.0
11:20:21.332783;1427;163872;129521;129449;195572;524159;524159;67.0;0.0;95.0
11:20:21.341777;1428;164019;129572;129473;195652;524159;524159;67.0;0.0;95.0
11:20:21.347771;1429;164243;129597;129496;195815;524159;524159;67.0;0.0;95.0
11:20:21.513305;1430;164487;129637;129517;196021;524159;524159;67.0;0.0;95.0
11:20:21.520301;1431;164727;129673;129533;196229;524159;524159;67.0;0.0;95.0
11:20:21.528296;1432;164967;129701;129548;196441;524159;524159;67.0;0.0;95.0
11:20:21.535633;1433;165216;129727;129574;196677;524159;524159;67.0;0.0;95.0
11:20:21.542973;1434;165465;129753;129588;196906;524159;524159;67.0;0.0;95.0
11:20:21.713171;1435;165753;129787;129604;197171;524159;524159;67.0;0.0;95.0
11:20:21.720971;1436;166069;129824;129631;197478;524159;524159;67.0;0.0;95.0
11:20:21.727975;1437;166414;129861;129653;197824;524159;524159;67.0;0.0;95.0
11:20:21.735476;1438;166775;129905;129683;198173;524159;524159;67.0;0.0;95.0
11:20:21.742741;1439;167144;129957;129709;198548;524159;524159;67.0;0.0;95.0
11:20:21.913791;1440;167522;130000;129745;198934;524159;524159;67.0;0.0;95.0
11:20:21.921791;1441;167936;130041;129762;199349;524159;524159;67.0;0.0;95.0
11:20:21.929778;1442;168272;130061;129774;199684;524159;524159;67.0;0.0;95.0
11:20:21.936785;1443;168024;129923;129672;199566;524159;524159;67.0;0.0;95.0
11:20:21.944787;1444;167182;129695;129539;198911;524159;524159;67.0;0.0;95.0
11:20:22.114813;1445;166507;129605;129491;198319;524159;524159;67.0;0.0;95.0
11:20:22.121812;1446;166221;129608;129484;198020;524159;524159;67.0;0.0;95.0
11:20:22.129788;1447;166182;129637;129514;197922;524159;524159;67.0;0.0;95.0
11:20:22.136927;1448;166316;129684;129545;197984;524159;524159;67.0;0.0;95.0
11:20:22.144969;1449;166462;129712;129568;198081;524159;524159;67.0;0.0;95.0
11:20:22.320023;1450;166453;129692;129553;198071;524159;524159;67.0;1087.3;95.0
11:20:22.334014;1451;166349;129665;129537;197966;524159;524159;67.0;0.0;95.0
11:20:22.346009;1452;166334;129673;129546;197926;524159;524159;67.0;0.0;95.0
11:20:22.349007;1453;166442;129707;129566;197988;524159;524159;67.0;0.0;95.0
11:20:22.352005;1454;166655;129744;129596;198150;524159;524159;67.0;0.0;95.0
11:20:22.514522;1455;166928;129790;129626;198391;524159;524159;67.0;0.0;95.0
11:20:22.521788;1456;167224;129825;129642;198665;524159;524159;67.0;0.0;95.0
11:20:22.528783;1457;167515;129866;129666;198941;524159;524159;67.0;0.0;95.0
11:20:22.536777;1458;167788;129902;129692;199212;524159;524159;67.0;0.0;95.0
11:20:22.543774;1459;168055;129926;129707;199477;524159;524159;67.0;0.0;95.0
11:20:22.722286;1460;168338;129957;129722;199753;524159;524159;67.0;0.0;95.0
11:20:22.735277;1461;168634;129997;129738;200050;524159;524159;67.0;0.0;95.0
11:20:22.739272;1462;168966;130033;129772;200376;524159;524159;67.0;0.0;95.0
11:20:22.743270;1463;169335;130072;129799;200726;524159;524159;67.0;0.0;95.0
11:20:22.746269;1464;169701;130121;129840;201089;524159;524159;67.0;0.0;95.0
11:20:22.915791;1465;170078;130169;129867;201467;524159;524159;67.0;0.0;95.0
11:20:22.921791;1466;170473;130209;129888;201849;524159;524159;67.0;0.0;95.0
11:20:22.929793;1467;170876;130257;129921;202244;524159;524159;67.0;0.0;95.0
11:20:22.944783;1468;170976;130200;129883;202380;524159;524159;67.0;0.0;95.0
11:20:22.947777;1469;170353;129979;129735;201944;524159;524159;67.0;0.0;95.0
11:20:23.115665;1470;169629;129843;129655;201353;524159;524159;67.0;0.0;95.0
11:20:23.124660;1471;169250;129838;129647;201011;524159;524159;67.0;0.0;95.0
11:20:23.130656;1472;169179;129855;129679;200897;524159;524159;67.0;0.0;95.0
11:20:23.137798;1473;169313;129907;129713;200962;524159;524159;67.0;0.0;95.0
11:20:23.144792;1474;169549;129963;129750;201152;524159;524159;67.0;0.0;95.0
11:20:23.315955;1475;169639;129955;129743;201241;524159;524159;67.0;0.0;95.0
11:20:23.323949;1476;169571;129923;129727;201198;524159;524159;67.0;1045.7;95.0
11:20:23.332942;1477;169491;129925;129731;201124;524159;524159;67.0;0.0;95.0
11:20:23.338938;1478;169550;129942;129746;201165;524159;524159;67.0;0.0;95.0
11:20:23.345972;1479;169727;129985;129768;201310;524159;524159;67.0;0.0;95.0
11:20:23.522482;1480;169972;130026;129808;201531;524159;524159;67.0;0.0;95.0
11:20:23.537473;1481;170250;130071;129837;201786;524159;524159;67.0;0.0;95.0
11:20:23.548463;1482;170526;130113;129863;202054;524159;524159;67.0;0.0;95.0
11:20:23.553457;1483;170785;130140;129878;202304;524159;524159;67.0;0.0;95.0
11:20:23.557454;1484;171038;130172;129908;202560;524159;524159;67.0;0.0;95.0
11:20:23.722028;1485;171291;130204;129910;202811;524159;524159;67.0;0.0;95.0
11:20:23.728022;1486;171558;130226;129940;203078;524159;524159;67.0;0.0;95.0
11:20:23.732019;1487;171862;130269;129971;203386;524159;524159;67.0;0.0;95.0
11:20:23.737739;1488;172182;130306;129986;203697;524159;524159;67.0;0.0;95.0
11:20:23.744820;1489;172523;130356;130009;204043;524159;524159;67.0;0.0;95.0
11:20:23.915665;1490;172874;130396;130042;204400;524159;524159;67.0;0.0;95.0
11:20:23.926792;1491;173229;130434;130078;204769;524159;524159;67.0;0.0;95.0
11:20:23.932788;1492;173595;130476;130097;205150;524159;524159;67.0;0.0;95.0
11:20:23.938781;1493;173926;130514;130114;205493;524159;524159;67.0;0.0;95.0
11:20:23.945782;1494;173729;130382;130031;205412;524159;524159;67.0;0.0;95.0
11:20:24.118215;1495;172960;130159;129883;204842;524159;524159;67.0;0.0;95.0
11:20:24.126212;1496;172322;130068;129847;204317;524159;524159;67.0;0.0;95.0
11:20:24.132205;1497;172062;130075;129852;204073;524159;524159;67.0;0.0;95.0
11:20:24.138786;1498;172052;130111;129882;204018;524159;524159;67.0;0.0;95.0
11:20:24.146967;1499;172205;130159;129919;204115;524159;524159;67.0;0.0;95.0
11:20:24.315852;1500;172373;130198;129944;204243;524159;524159;67.0;0.0;95.0
11:20:24.323786;1501;172378;130188;129934;204244;524159;524159;67.0;0.0;95.0
11:20:24.344874;1502;172268;130152;129921;204147;524159;524159;67.0;1025.2;95.0
11:20:24.355867;1503;172202;130153;129928;204078;524159;524159;67.0;0.0;95.0
11:20:24.360864;1504;172269;130183;129939;204118;524159;524159;67.0;0.0;95.0
11:20:24.516370;1505;172439;130221;129971;204261;524159;524159;67.0;0.0;95.0
11:20:24.523784;1506;172663;130260;129989;204450;524159;524159;67.0;0.0;95.0
11:20:24.530966;1507;172902;130299;130020;204662;524159;524159;67.0;0.0;95.0
11:20:24.538769;1508;173147;130336;130043;204880;524159;524159;67.0;0.0;95.0
11:20:24.545083;1509;173374;130359;130056;205094;524159;524159;67.0;0.0;95.0
11:20:24.716793;1510;173584;130388;130074;205278;524159;524159;67.0;0.0;95.0
11:20:24.727791;1511;173803;130409;130091;205497;524159;524159;67.0;0.0;95.0
11:20:24.741779;1512;174031;130444;130109;205727;524159;524159;67.0;0.0;95.0
11:20:24.747773;1513;174289;130486;130137;206000;524159;524159;67.0;0.0;95.0
11:20:24.750771;1514;174556;130517;130167;206291;524159;524159;67.0;0.0;95.0
11:20:24.921056;1515;174849;130568;130197;206598;524159;524159;67.0;0.0;95.0
11:20:24.927049;1516;175171;130605;130216;206928;524159;524159;67.0;0.0;95.0
11:20:24.931047;1517;175486;130637;130237;207234;524159;524159;67.0;0.0;95.0
11:20:24.939067;1518;175481;130573;130188;207293;524159;524159;67.0;0.0;95.0
11:20:24.945970;1519;174773;130362;130040;206767;524159;524159;67.0;0.0;95.0
11:20:25.116968;1520;174006;130225;129977;206126;524159;524159;67.0;0.0;95.0
11:20:25.123966;1521;173586;130215;129973;205729;524159;524159;67.0;0.0;95.0
11:20:25.130967;1522;173477;130238;129992;205574;524159;524159;67.0;0.0;95.0
11:20:25.138972;1523;173571;130295;130035;205609;524159;524159;67.0;0.0;94.9
11:20:25.146795;1524;173729;130336;130064;205707;524159;524159;67.0;0.0;94.9
11:20:25.320824;1525;173749;130324;130054;205698;524159;524159;67.0;0.0;94.9
11:20:25.328817;1526;173607;130290;130034;205572;524159;524159;67.0;0.0;94.9
11:20:25.335817;1527;173475;130289;130031;205440;524159;524159;67.0;1014.2;94.9
11:20:25.341811;1528;173481;130300;130043;205417;524159;524159;67.0;0.0;94.9
11:20:25.347790;1529;173596;130345;130074;205496;524159;524159;67.0;0.0;94.9
11:20:25.524010;1530;173785;130379;130094;205647;524159;524159;67.0;0.0;94.9
11:20:25.538003;1531;173992;130417;130110;205828;524159;524159;67.0;0.0;94.9
11:20:25.545992;1532;174208;130449;130140;206016;524159;524159;67.0;0.0;94.9
11:20:25.552988;1533;174411;130482;130151;206206;524159;524159;67.0;0.0;94.9
11:20:25.555985;1534;174603;130501;130171;206385;524159;524159;67.0;0.0;94.9
11:20:25.719039;1535;174784;130534;130186;206570;524159;524159;67.0;0.0;94.9
11:20:25.725788;1536;175003;130549;130206;206774;524159;524159;67.0;0.0;94.9
11:20:25.732791;1537;175243;130586;130235;206998;524159;524159;67.0;0.0;94.9
11:20:25.740317;1538;175514;130622;130253;207273;524159;524159;67.0;0.0;94.9
11:20:25.747740;1539;175795;130667;130275;207557;524159;524159;67.0;0.0;94.9
11:20:25.918806;1540;176105;130699;130299;207855;524159;524159;67.0;0.0;94.9
11:20:25.928800;1541;176383;130730;130319;208125;524159;524159;67.0;0.0;94.9
11:20:25.938789;1542;176230;130630;130243;208057;524159;524159;67.0;0.0;94.9
11:20:25.945786;1543;175414;130417;130097;207444;524159;524159;67.0;0.0;94.9
11:20:25.949783;1544;174659;130306;130045;206811;524159;524159;67.0;0.0;94.9
11:20:26.117245;1545;174283;130302;130049;206435;524159;524159;67.0;0.0;94.9
11:20:26.124241;1546;174187;130321;130065;206280;524159;524159;67.0;0.0;94.9
11:20:26.132236;1547;174270;130363;130095;206289;524159;524159;67.0;0.0;94.9
11:20:26.139737;1548;174398;130399;130127;206369;524159;524159;67.0;0.0;95.0
11:20:26.146889;1549;174349;130364;130115;206315;524159;524159;67.0;0.0;95.0
11:20:26.318655;1550;174149;130330;130083;206130;524159;524159;67.0;0.0;95.0
11:20:26.325805;1551;174010;130315;130093;205989;524159;524159;67.0;0.0;95.0
11:20:26.333784;1552;173999;130339;130098;205952;524159;524159;67.0;1024.2;95.0
11:20:26.340965;1553;174105;130370;130116;206020;524159;524159;67.0;0.0;95.0
11:20:26.347969;1554;174275;130411;130142;206146;524159;524159;67.0;0.0;95.0
11:20:26.524028;1555;174465;130439;130163;206318;524159;524159;67.0;0.0;95.0
11:20:26.537019;1556;174632;130464;130185;206485;524159;524159;67.0;0.0;95.0
11:20:26.544014;1557;174817;130491;130204;206642;524159;524159;67.0;0.0;95.0
11:20:26.548012;1558;174967;130501;130214;206793;524159;524159;67.0;0.0;95.0
11:20:26.551008;1559;175127;130522;130228;206952;524159;524159;67.0;0.0;95.0
11:20:26.723952;1560;175319;130548;130247;207146;524159;524159;67.0;0.0;95.0
11:20:26.737942;1561;175529;130591;130264;207363;524159;524159;67.0;0.0;95.0
11:20:26.749937;1562;175793;130622;130277;207630;524159;524159;67.0;0.0;95.0
11:20:26.754935;1563;176064;130657;130310;207899;524159;524159;67.0;0.0;95.0
11:20:26.757929;1564;176060;130602;130267;207925;524159;524159;67.0;0.0;95.0
11:20:26.925796;1565;175420;130423;130149;207453;524159;524159;67.0;0.0;95.0
11:20:26.935787;1566;174678;130314;130087;206841;524159;524159;67.0;0.0;95.0
11:20:26.939784;1567;174275;130297;130072;206467;524159;524159;67.0;0.0;95.0
11:20:26.942783;1568;174164;130324;130099;206319;524159;524159;67.0;0.0;95.0
11:20:26.946780;1569;174298;130380;130142;206398;524159;524159;67.0;0.0;95.0
11:20:27.124063;1570;174443;130403;130161;206495;524159;524159;67.0;0.0;95.0
11:20:27.138055;1571;174394;130381;130141;206451;524159;524159;67.0;0.0;95.0
11:20:27.147048;1572;174175;130349;130121;206257;524159;524159;67.0;0.0;95.0
11:20:27.151047;1573;174046;130337;130113;206118;524159;524159;67.0;0.0;95.0
11:20:27.154045;1574;174048;130360;130131;206070;524159;524159;67.0;0.0;95.0
11:20:27.318779;1575;174143;130394;130155;206115;524159;524159;67.0;0.0;95.0
11:20:27.326321;1576;174314;130426;130176;206244;524159;524159;67.0;0.0;95.0
11:20:27.333969;1577;174489;130473;130203;206395;524159;524159;67.0;973.3;95.0
11:20:27.340930;1578;174681;130514;130224;206569;524159;524159;67.0;0.0;95.0
11:20:27.348770;1579;174852;130542;130241;206725;524159;524159;67.0;0.0;95.0
11:20:27.512174;1580;175015;130566;130248;206871;524159;524159;67.0;0.0;95.0
11:20:27.532262;1581;175199;130587;130263;207029;524159;524159;67.0;0.0;95.0
11:20:27.542476;1582;175299;130586;130244;207143;524159;524159;67.0;0.0;95.0
11:20:27.547484;1583;174912;130436;130150;206846;524159;524159;67.0;0.0;95.0
11:20:27.552515;1584;174155;130294;130058;206180;524159;524159;67.0;0.0;95.0
11:20:27.712491;1585;173572;130240;130020;205623;524159;524159;67.0;0.0;95.0
11:20:27.722340;1586;173325;130247;130047;205319;524159;524159;67.0;0.0;95.0
11:20:27.742329;1587;173357;130310;130086;205251;524159;524159;67.0;0.0;95.0
11:20:27.742329;1588;173487;130360;130124;205302;524159;524159;67.0;0.0;95.0
11:20:27.752562;1589;173453;130357;130127;205222;524159;524159;67.0;0.0;95.0
11:20:27.917384;1590;173235;130320;130105;205011;524159;524159;67.0;0.0;95.0
11:20:27.927432;1591;173044;130306;130086;204800;524159;524159;67.0;0.0;95.0
11:20:27.932484;1592;172977;130301;130082;204683;524159;524159;67.0;0.0;95.0
11:20:27.942379;1593;173034;130327;130100;204671;524159;524159;67.0;0.0;95.0
11:20:27.942379;1594;173152;130372;130115;204704;524159;524159;67.0;0.0;95.0
11:20:28.112227;1595;173322;130414;130162;204808;524159;524159;67.0;0.0;95.0
11:20:28.122452;1596;173485;130459;130190;204906;524159;524159;67.0;0.0;95.0
11:20:28.132476;1597;173647;130487;130214;205015;524159;524159;67.0;0.0;95.0
11:20:28.142489;1598;173814;130507;130219;205135;524159;524159;67.0;0.0;95.0
11:20:28.142489;1599;173907;130503;130211;205202;524159;524159;67.0;0.0;95.0
11:20:28.322159;1600;173429;130360;130119;204811;524159;524159;66.0;0.0;95.0
11:20:28.332190;1601;172361;130151;129973;203864;524159;524159;66.0;953.1;95.0
11:20:28.342131;1602;171390;130036;129907;202918;524159;524159;66.0;0.0;95.0
11:20:28.352327;1603;170781;130001;129893;202266;524159;524159;66.0;0.0;95.0
11:20:28.352327;1604;170440;130009;129891;201834;524159;524159;66.0;0.0;95.0
11:20:28.519965;1605;170313;130027;129917;201600;524159;524159;66.0;0.0;95.0
11:20:28.526966;1606;170184;130032;129911;201375;524159;524159;66.0;0.0;95.0
11:20:28.532096;1607;169883;129985;129878;201023;524159;524159;66.0;0.0;95.0
11:20:28.542135;1608;169521;129936;129838;200586;524159;524159;66.0;0.0;95.0
11:20:28.542135;1609;169268;129924;129836;200249;524159;524159;66.0;0.0;95.0
11:20:28.712310;1610;169164;129938;129846;200043;524159;524159;66.0;0.0;95.0
11:20:28.722167;1611;169177;129969;129856;199956;524159;524159;66.0;0.0;95.0
11:20:28.734835;1612;169242;129995;129872;199948;524159;524159;66.0;0.0;95.0
11:20:28.742365;1613;169344;130010;129884;199964;524159;524159;66.0;0.0;95.0
11:20:28.742365;1614;169422;130018;129880;199969;524159;524159;66.0;0.0;95.0
11:20:28.912521;1615;169503;130031;129885;199994;524159;524159;66.0;0.0;95.0
11:20:28.922453;1616;169587;130041;129886;200038;524159;524159;66.0;0.0;95.0
11:20:28.932181;1617;169701;130052;129891;200105;524159;524159;66.0;0.0;95.0
11:20:28.942242;1618;169860;130077;129905;200206;524159;524159;66.0;0.0;95.0
11:20:28.942242;1619;170052;130109;129919;200372;524159;524159;66.0;0.0;95.0
11:20:29.112224;1620;170259;130119;129925;200539;524159;524159;66.0;0.0;95.0
11:20:29.122468;1621;170006;129998;129831;200328;524159;524159;66.0;0.0;95.0
11:20:29.142188;1622;168828;129724;129638;199283;524159;524159;66.0;0.0;95.0
11:20:29.142188;1623;167566;129530;129531;198041;524159;524159;66.0;887.6;95.0
11:20:29.152347;1624;166663;129447;129495;197055;524159;524159;66.0;0.0;95.0
11:20:29.322274;1625;166057;129401;129464;196301;524159;524159;66.0;0.0;95.0
11:20:29.322274;1626;165622;129388;129457;195729;524159;524159;66.0;0.0;95.0
