314
337
329
317
321
332
321
321
319
333
324
308
324
335
324
312
321
342
335
318
330
340
327
321
338
351
334
338
364
352
318
315
362
338
299
304
341
303
251
254
271
258
244
248
257
219
191
199
209
233
230
256
278
211
164
158
92
94
157
130
115
118
129
152
145
129
145
150
123
130
114
125
127
128
163
149
103
110
146
157
157
181
203
202
192
170
166
176
178
182
196
210
198
213
239
231
219
230
262
269
272
292
299
285
265
311
293
260
341
363
321
314
341
349
321
273
225
184
129
56
0
0
0
0
0
0
0
0
0
0
0
0
0
0
84
154
166
149
86
120
195
246
260
251
268
291
302
311
317
334
335
351
364
367
383
420
459
474
491
473
455
445
418
418
465
472
405
371
408
428
392
358
343
306
293
286
342
386
390
391
393
377
358
355
349
318
313
319
323
350
413
517
597
599
571
563
562
537
534
533
511
454
403
385
382
369
342
294
308
339
295
245
254
319
408
465
472
465
465
448
403
225
173
318
501
560
570
562
510
487
507
514
572
629
575
466
380
326
314
310
274
269
330
378
398
420
430
405
414
478
542
535
473
413
353
307
305
333
358
360
352
353
349
329
319
342
372
389
412
451
467
455
450
465
469
447
434
443
447
439
447
467
473
463
458
464
459
447
454
476
485
481
483
490
483
469
475
487
469
429
416
423
413
397
395
395
376
361
363
363
346
334
339
341
327
321
328
327
312
306
310
305
287
281
292
292
279
278
291
291
280
282
294
293
284
288
300
295
284
289
301
296
286
293
302
294
286
294
305
294
286
297
304
295
290
302
306
294
290
302
305
294
292
304
304
292
289
300
300
289
288
301
298
287
290
302
297
286
290
301
295
285
290
301
294
286
291
300
292
286
294
302
292
286
298
305
294
288
300
304
292
289
301
305
296
298
311
316
306
304
316
318
311
312
322
314
296
295
306
302
291
295
308
302
293
299
309
300
293
315
349
373
387
384
365
322
281
259
277
295
300
311
315
304
302
314
317
305
305
318
319
308
309
322
322
311
315
327
325
315
321
334
329
320
328
340
335
327
336
347
341
336
349
360
353
349
361
371
364
362
374
381
371
367
379
380
362
353
357
349
330
323
329
322
306
304
314
311
298
301
313
308
297
302
314
308
300
307
318
310
302
311
320
312
305
315
322
311
306
316
322
310
306
318
322
311
308
321
322
309
309
322
322
311
311
323
321
310
313
325
320
309
313
324
320
309
314
325
318
315
325
317
309
317
325
316
310
320
327
317
311
322
327
315
312
324
325
314
312
325
325
312
312
324
324
312
312
323
320
308
309
320
314
302
307
316
309
299
304
313
306
297
307
319
313
308
318
322
312
309
321
324
310
302
303
304
292
288
300
302
291
289
301
288
288
307
321
337
373
398
374
332
307
278
256
270
296
311
305
296
304
313
304
297
306
314
305
300
310
318
307
304
316
322
311
308
320
325
314
313
327
329
318
319
334
336
324
328
343
343
335
342
358
357
349
357
371
367
359
367
378
369
356
359
362
343
327
330
314
304
311
315
301
296
307
311
299
296
308
310
299
298
312
313
300
301
314
312
300
304
316
313
301
305
317
311
301
307
318
310
302
309
319
309
302
311
320
311
305
315
322
312
306
317
322
312
308
319
322
311
308
322
324
313
312
324
323
312
314
326
324
315
327
323
312
318
330
323
313
319
330
322
314
322
331
322
315
325
332
322
316
325
331
321
317
328
332
320
317
329
333
320
318
331
331
320
320
333
331
321
323
335
331
320
323
336
331
320
325
336
328
319
327
339
333
327
337
346
339
336
348
353
343
337
347
335
325
333
334
320
319
332
333
321
320
333
331
317
319
341
357
377
416
433
404
360
329
300
294
308
327
339
331
321
329
339
330
322
331
339
329
326
336
341
332
327
339
344
333
330
344
346
335
335
348
348
339
340
353
352
342
346
362
361
353
360
374
373
366
387
382
374
381
392
382
370
373
374
356
340
343
341
325
315
322
324
311
305
317
319
307
304
317
318
305
305
317
317
305
306
320
316
305
308
320
315
303
308
320
313
302
309
321
313
304
313
321
313
305
314
322
314
307
317
323
312
307
320
322
310
307
319
321
308
320
321
309
310
323
321
308
311
323
319
309
313
325
319
307
312
324
317
308
315
325
317
309
318
326
316
309
318
325
313
309
320
325
313
309
320
324
312
309
322
324
313
312
325
324
312
314
325
322
311
315
326
321
311
315
326
322
312
317
327
320
313
323
329
323
334
346
336
330
342
347
336
330
338
336
318
311
322
323
312
310
323
323
311
310
323
319
307
321
357
387
403
402
389
352
307
275
291
311
314
321
333
325
317
325
334
324
317
328
335
325
319
329
335
324
321
334
337
328
326
338
340
327
328
342
342
332
348
348
338
344
361
360
349
355
371
368
360
368
381
374
367
374
382
369
356
357
356
337
323
326
325
310
301
311
321
301
286
298
304
293
291
304
304
292
293
307
304
293
296
309
306
296
301
313
308
300
304
315
309
299
308
319
309
302
311
326
312
296
306
317
304
316
320
308
303
315
320
308
305
317
319
307
307
319
317
306
308
319
316
309
317
324
310
301
311
325
318
307
313
324
316
309
318
326
316
306
319
332
327
324
332
340
327
323
344
347
324
317
330
325
307
302
313
314
304
304
317
316
304
305
316
313
315
336
377
359
347
339
307
264
267
306
320
309
316
330
324
317
329
339
318
311
326
335
323
321
336
340
326
324
338
341
333
333
342
343
332
334
351
352
331
334
352
352
344
349
366
362
352
361
374
371
364
372
381
372
365
371
375
360
345
349
351
325
314
324
327
313
319
323
309
306
318
320
310
309
326
328
318
311
320
317
309
315
328
324
313
316
329
321
309
316
325
319
316
319
318
310
307
319
327
318
307
320
323
311
309
321
328
314
310
323
328
319
308
319
325
317
315
331
327
318
319
328
330
320
326
337
333
321
325
318
304
310
319
313
309
316
322
311
308
318
320
313
315
353
371
360
350
347
335
300
268
280
309
315
313
322
329
319
324
340
324
307
320
334
330
318
323
336
335
325
329
338
335
322
339
341
327
324
336
347
342
335
341
347
341
343
352
365
352
343
357
367
357
356
370
357
358
365
356
334
328
341
336
305
304
319
312
300
305
321
313
299
302
315
306
299
307
315
305
304
306
310
303
302
315
320
309
304
312
315
303
302
319
318
303
306
325
322
301
303
323
323
312
315
330
328
322
330
341
333
323
330
344
337
332
348
353
330
325
334
327
321
331
336
326
320
332
336
326
331
336
327
314
326
358
380
382
375
371
350
308
285
302
328
330
326
337
338
331
337
349
344
338
342
352
346
340
351
361
340
332
351
361
349
345
357
360
350
349
359
362
352
352
369
368
351
353
369
372
362
366
380
368
374
386
381
369
369
377
366
339
337
346
336
326
327
333
323
315
323
330
316
309
319
325
315
318
323
319
310
311
327
327
313
314
327
329
316
314
327
326
315
314
327
322
312
321
324
316
305
311
325
318
309
316
325
318
310
319
329
322
321
322
325
320
316
333
323
322
337
339
322
314
324
326
312
310
329
320
302
307
323
321
310
312
324
317
304
316
346
362
374
381
378
346
308
283
284
297
307
317
325
316
312
322
328
318
314
324
327
317
314
327
330
322
326
330
326
318
321
336
335
325
327
340
338
328
333
346
340
340
354
352
348
350
360
354
351
362
370
359
351
361
364
345
334
339
337
319
315
326
317
303
302
314
315
304
305
317
315
304
305
318
315
303
306
319
316
305
312
329
315
299
308
321
315
305
313
322
312
306
314
322
312
307
320
327
317
303
314
324
312
308
322
311
311
323
323
311
311
324
324
316
319
319
315
308
314
326
321
311
317
327
320
310
317
326
317
310
320
330
317
309
322
336
315
302
317
327
315
310
322
326
314
312
324
325
311
311
325
325
311
314
328
325
312
315
329
329
308
307
322
320
313
319
327
319
311
328
319
310
320
328
318
313
323
329
318
314
327
330
318
314
327
329
317
316
330
331
321
322
336
335
322
322
333
332
321
326
339
334
325
332
347
346
339
333
340
335
329
339
344
330
316
320
325
313
307
320
326
315
312
325
326
311
309
329
346
361
386
399
382
321
301
299
302
311
325
319
309
312
325
318
308
316
326
318
309
318
328
319
312
323
330
320
314
327
335
323
318
332
337
326
325
339
343
333
330
343
346
336
339
354
355
347
352
367
365
355
360
372
364
351
353
358
345
328
329
334
320
307
312
318
306
298
308
303
299
309
315
303
299
311
315
302
300
312
315
304
304
316
314
303
305
318
314
303
308
320
317
305
310
321
315
305
313
323
315
306
313
322
314
306
317
325
314
306
318
323
312
307
318
322
310
308
320
323
311
310
323
322
310
310
323
322
311
313
325
322
311
328
322
311
317
329
321
311
319
329
321
311
321
329
319
312
323
331
320
315
326
331
319
316
329
331
318
316
329
330
319
318
331
329
317
319
332
329
318
321
334
328
317
322
332
326
317
323
333
324
316
325
335
325
318
327
335
325
319
329
334
324
320
332
340
333
349
350
334
334
348
348
335
333
341
332
316
318
329
325
314
318
330
324
315
320
330
321
316
337
372
397
401
396
380
340
296
292
317
319
318
329
333
320
317
329
332
320
320
333
334
323
323
336
335
324
327
340
337
327
331
344
340
329
334
347
342
334
341
347
339
350
362
356
351
365
375
366
362
376
383
371
367
380
381
364
355
360
354
335
327
333
327
311
310
321
317
304
306
318
313
302
308
320
313
302
308
319
311
302
310
320
311
303
312
320
310
302
314
324
310
304
316
321
309
306
319
321
310
309
322
322
309
324
322
309
310
322
319
307
310
322
318
307
312
324
317
307
313
325
317
307
315
323
317
309
317
324
318
310
320
326
315
311
322
326
314
310
323
326
313
312
325
326
315
314
325
323
312
316
328
324
311
316
329
323
313
320
331
322
313
320
330
319
310
321
330
313
323
330
319
313
325
330
319
315
327
331
319
317
329
330
319
319
335
338
331
335
348
343
330
334
349
344
330
331
335
323
311
318
329
321
312
320
329
320
311
321
328
319
324
357
396
406
391
377
352
306
275
305
326
319
319
332
330
317
319
332
329
318
321
330
319
325
337
331
321
328
339
333
326
333
343
335
328
339
348
338
334
345
354
344
340
355
363
354
354
369
375
365
364
379
381
369
368
379
373
356
350
355
344
324
321
328
318
304
306
317
310
301
307
316
308
300
308
318
307
299
310
318
307
301
312
318
307
313
316
305
303
315
316
304
303
316
316
304
304
318
316
304
307
319
315
303
309
320
314
303
310
321
314
303
311
320
312
305
315
323
311
305
316
323
312
307
318
323
311
307
320
322
309
308
321
322
310
310
323
322
310
313
326
321
310
314
327
321
310
317
327
310
318
329
320
310
320
329
319
310
321
329
317
311
322
328
316
311
324
327
316
312
325
328
315
314
326
326
315
316
329
327
315
320
335
335
328
336
349
339
327
336
349
338
326
330
332
320
310
320
328
317
310
321
327
316
311
321
327
323
340
384
414
394
366
318
272
283
321
329
318
320
332
328
317
320
334
330
319
324
335
329
320
329
338
329
323
332
341
331
325
336
345
335
331
344
349
338
336
351
356
346
345
361
365
355
358
374
375
365
367
381
379
366
368
377
367
350
347
351
336
319
320
326
315
304
311
319
308
310
318
307
301
312
318
307
303
314
319
306
304
316
318
306
305
318
318
305
306
321
318
305
307
320
316
304
310
321
315
305
311
322
315
305
314
323
314
306
315
324
312
306
317
324
312
307
318
322
312
309
321
324
312
310
323
323
310
310
324
323
311
312
325
310
313
326
321
309
315
328
321
311
318
329
321
311
320
329
320
313
324
331
320
314
324
330
320
315
326
329
318
316
328
330
318
316
328
327
315
317
330
328
316
319
330
326
315
321
332
326
316
323
336
333
329
339
351
340
329
340
351
340
329
337
336
319
311
327
315
312
324
326
314
312
325
325
321
341
384
411
394
369
353
318
271
283
322
327
317
323
333
326
316
324
333
325
317
326
334
325
319
329
337
327
322
334
340
329
325
339
343
332
331
344
347
336
338
352
353
343
347
361
361
353
358
373
371
363
369
382
376
372
380
367
350
349
351
335
320
323
325
312
303
312
317
305
299
310
314
302
300
311
314
303
302
313
313
301
303
315
313
302
304
316
312
299
304
316
311
301
306
318
311
302
310
318
310
302
313
320
310
302
311
319
308
304
316
321
308
303
315
318
306
305
319
307
306
318
317
306
309
321
317
305
309
322
320
316
311
315
310
303
311
322
314
306
313
323
313
306
317
325
315
308
319
324
312
308
320
324
312
309
322
324
311
310
323
324
311
312
324
322
311
316
334
334
326
331
342
335
326
340
350
330
315
318
325
315
306
326
316
308
319
326
315
307
321
340
356
381
404
391
355
327
302
278
286
318
329
321
311
316
331
328
317
322
335
330
320
324
336
330
322
330
340
332
323
334
343
334
327
338
349
343
339
340
345
339
339
353
359
349
350
365
370
361
363
377
379
368
368
382
379
363
368
355
336
333
340
334
309
304
315
308
298
306
314
305
297
304
313
304
299
310
317
305
299
311
317
304
303
322
317
297
296
314
314
303
303
315
313
301
304
318
314
303
306
319
314
304
309
321
313
304
311
322
318
308
307
315
309
305
316
322
311
306
318
313
309
320
324
312
310
322
324
311
311
325
324
311
312
327
330
317
310
320
320
311
317
329
321
311
319
329
320
313
320
331
324
317
328
340
330
324
332
341
340
333
333
332
320
314
322
324
312
313
326
323
311
314
326
324
313
316
337
354
367
383
381
358
326
290
291
298
317
330
325
320
329
338
328
321
333
341
330
325
337
342
331
328
341
345
333
338
348
340
328
332
348
349
337
340
356
355
345
350
363
359
350
358
372
369
361
370
383
376
371
383
380
365
359
365
365
343
330
336
336
320
311
318
321
308
305
316
318
305
317
316
305
307
326
322
301
304
322
317
306
311
324
318
306
312
322
315
306
314
324
315
306
316
328
318
300
309
321
311
306
317
323
312
308
318
321
309
310
324
327
316
304
317
321
311
313
327
327
317
320
331
328
319
325
336
330
323
333
342
329
315
318
318
313
323
321
310
308
321
328
314
309
323
327
319
330
366
386
370
348
344
324
282
271
305
326
320
325
339
326
314
323
338
334
324
330
341
332
323
333
344
335
328
338
348
338
333
344
352
341
337
349
354
345
344
358
361
352
353
369
372
363
365
382
381
371
387
384
372
372
381
366
347
344
350
337
324
331
328
313
306
316
325
315
307
317
323
314
307
320
325
314
311
323
327
316
314
326
328
316
314
326
326
314
314
327
325
313
316
328
323
312
317
328
322
312
318
328
320
311
319
329
319
312
321
329
317
311
321
327
309
323
327
316
313
325
329
316
313
327
328
314
315
330
329
319
322
335
329
320
326
337
334
324
332
346
337
323
325
331
320
310
318
327
317
311
320
328
317
311
322
326
314
315
343
371
385
385
376
353
316
280
282
306
313
316
329
326
315
318
332
327
316
321
328
318
325
335
329
321
330
339
331
323
333
342
332
325
338
345
336
332
344
349
341
339
354
359
349
350
366
369
359
362
375
373
362
363
373
367
348
344
349
336
320
320
326
315
304
309
319
309
300
307
316
306
299
309
317
306
301
312
317
305
301
313
317
305
316
317
304
304
316
316
303
304
317
314
303
307
320
315
303
308
320
314
304
311
322
314
304
313
322
312
304
314
321
310
304
315
322
311
306
318
322
310
308
321
321
309
308
321
321
309
310
323
321
309
312
324
320
308
312
325
318
309
316
326
319
308
316
326
311
319
328
317
311
321
327
317
311
323
328
317
313
325
328
316
313
326
327
316
316
328
327
315
316
329
326
315
317
330
325
316
322
336
329
318
325
338
332
324
333
343
336
331
339
342
326
315
324
329
317
313
326
331
319
315
326
329
316
314
328
337
344
376
413
378
352
330
290
287
312
334
330
319
324
334
326
318
325
335
325
318
328
337
328
322
332
339
328
323
336
341
330
326
340
343
333
333
346
348
336
338
353
354
345
348
364
363
354
361
376
373
363
369
382
375
362
367
372
357
340
341
343
326
313
319
322
309
311
315
303
299
310
315
301
298
311
313
300
300
313
314
301
301
315
313
300
302
315
312
301
304
316
310
300
307
318
310
301
309
320
310
302
311
320
309
303
313
320
309
303
315
320
308
305
317
320
306
306
319
319
308
308
321
320
308
311
323
320
308
312
325
309
314
325
319
309
316
327
318
310
319
327
318
311
321
329
317
311
323
328
317
312
324
329
317
314
328
330
318
316
328
327
316
318
331
328
316
319
332
327
317
321
334
327
317
323
334
327
318
326
336
327
318
328
335
324
319
332
341
332
326
337
342
334
332
348
339
340
352
347
329
323
332
328
317
320
334
330
318
321
332
327
316
320
337
342
359
406
438
415
374
348
316
285
298
326
339
328
320
331
337
326
322
334
337
325
323
337
339
327
327
342
342
330
332
346
344
332
336
349
346
336
341
356
351
342
350
363
357
362
375
369
363
375
385
377
372
385
392
379
371
380
379
358
345
349
343
324
317
327
324
309
307
319
317
305
307
319
315
304
307
319
314
304
309
320
312
304
311
321
313
304
313
321
310
303
314
322
310
304
317
321
310
306
318
321
309
306
319
320
308
308
321
308
309
322
319
307
310
324
319
307
311
323
317
306
314
325
317
307
315
324
316
308
318
326
315
309
320
325
314
310
322
327
315
311
324
327
315
313
327
326
314
313
326
324
313
315
328
324
313
316
329
322
312
317
330
323
314
320
330
321
313
323
334
326
318
337
331
326
335
342
335
332
343
340
322
313
323
324
311
312
326
324
311
314
327
322
308
310
332
347
367
409
426
393
347
320
290
280
297
320
334
323
314
323
332
322
316
327
334
320
317
330
334
324
322
334
335
325
324
337
337
327
327
342
340
329
334
349
347
342
356
356
347
356
370
366
358
369
381
373
366
376
385
374
363
367
366
346
332
335
333
315
306
316
316
302
298
309
310
299
298
311
311
299
301
314
311
299
302
316
310
300
305
317
311
301
308
318
309
300
308
318
308
299
310
317
306
300
312
319
306
302
315
308
303
315
318
306
305
318
317
305
306
319
318
306
307
320
317
306
310
322
318
310
317
327
320
313
321
332
326
319
332
343
330
318
321
324
311
304
315
322
309
305
318
322
309
306
317
316
306
319
358
393
410
399
381
344
289
265
298
316
312
319
331
324
314
332
324
316
325
335
324
318
328
337
326
321
332
340
329
324
337
343
333
331
343
348
336
335
350
352
343
346
362
364
355
359
375
375
365
370
383
379
366
370
377
362
343
342
343
327
311
316
321
307
297
306
313
300
293
305
311
300
296
309
312
301
299
312
315
303
316
314
301
304
317
314
302
305
318
312
300
304
316
311
300
306
317
309
299
307
317
308
300
311
319
309
302
312
320
308
303
315
320
307
304
316
319
307
306
319
318
307
311
326
323
309
313
329
328
317
321
338
337
325
325
330
317
306
312
323
315
306
314
314
307
316
323
311
305
326
355
378
408
416
389
341
298
273
286
302
313
329
328
314
316
329
327
314
318
331
326
316
323
334
329
318
326
339
331
323
332
344
335
328
337
347
339
334
345
354
344
340
355
363
353
352
367
371
362
363
378
379
368
368
378
372
354
351
338
320
317
324
313
299
303
313
306
296
302
313
304
295
305
315
306
298
308
315
306
301
312
317
305
301
313
317
304
300
312
313
302
301
313
313
302
303
316
314
302
305
317
312
301
307
320
314
302
308
320
313
303
310
320
312
304
312
322
312
305
315
321
305
318
324
312
307
319
321
310
309
323
322
311
311
323
322
311
313
326
323
310
313
326
321
311
320
331
325
316
326
337
330
321
332
344
338
324
329
333
320
311
321
327
319
322
326
321
309
309
323
326
312
315
342
371
391
404
396
363
320
286
280
297
312
323
331
321
326
339
333
323
330
338
330
324
334
341
331
324
337
343
333
331
350
348
330
330
346
350
338
338
353
355
343
347
362
363
354
359
375
374
364
367
379
375
366
372
383
372
356
356
358
341
324
326
331
322
311
307
311
303
299
309
314
302
300
314
316
304
315
319
307
305
317
318
305
305
318
316
304
307
324
321
298
302
316
313
302
308
318
311
302
312
323
312
302
312
321
310
303
312
321
312
305
317
330
320
305
317
325
315
316
329
333
325
323
332
327
310
309
321
317
306
310
323
319
307
312
322
318
315
315
317
332
370
398
377
346
335
318
273
264
303
327
318
313
326
331
320
321
338
328
311
315
331
333
321
322
336
332
322
326
340
336
327
332
347
341
331
338
351
344
338
347
363
362
346
353
364
358
355
368
378
368
363
374
377
362
356
360
354
334
324
333
335
316
302
314
303
303
316
313
302
306
316
313
304
309
320
314
303
312
324
316
313
317
316
308
305
318
324
312
306
318
323
312
306
319
321
310
310
323
323
310
309
327
326
304
304
322
321
310
317
330
326
315
322
337
335
322
325
330
316
307
314
325
320
311
311
319
312
318
325
314
310
320
330
338
358
386
384
350
325
313
282
274
300
319
320
312
316
331
330
320
324
336
328
320
326
337
331
322
330
343
337
320
326
340
336
331
342
352
343
341
355
363
354
352
368
375
366
364
379
384
378
382
384
382
375
379
392
389
371
367
372
342
340
349
342
328
332
346
334
317
326
339
332
323
331
339
331
325
335
342
331
325
337
341
330
328
345
337
321
321
336
338
326
327
337
338
325
326
339
336
324
328
340
334
323
328
341
338
334
335
337
332
327
336
346
337
333
345
350
336
325
332
336
323
323
336
316
315
332
336
322
319
332
333
321
331
366
385
381
370
361
336
300
282
300
319
319
325
339
333
323
330
343
335
328
337
344
335
330
340
349
342
325
335
343
336
335
347
349
339
338
353
354
341
341
359
360
351
353
366
365
361
367
370
368
364
368
378
372
363
368
353
335
338
342
326
314
323
328
316
315
318
318
307
303
318
324
313
309
321
323
310
309
325
324
310
312
326
327
303
303
321
319
308
313
324
318
307
313
326
316
306
314
324
317
309
318
327
322
305
309
319
313
309
319
324
315
311
323
328
317
315
329
316
321
336
337
325
325
336
326
309
310
323
318
305
311
325
325
304
305
319
313
306
315
326
323
335
367
391
371
343
332
310
274
281
318
331
320
318
331
333
322
321
334
334
322
323
338
337
331
332
335
332
325
331
344
339
329
336
348
343
333
340
351
345
337
360
353
348
360
369
361
357
369
376
366
361
372
374
357
352
358
351
331
323
331
327
311
310
321
317
308
310
313
308
298
305
318
311
303
310
320
311
304
312
322
313
305
312
319
308
304
315
320
309
304
315
318
307
304
316
317
307
306
318
318
305
306
320
319
308
320
317
306
310
321
316
307
313
325
318
307
313
325
318
309
317
326
315
307
318
325
314
309
320
325
315
311
323
326
314
313
325
325
312
312
326
326
314
314
328
325
313
316
329
323
314
320
330
323
313
319
331
323
312
320
329
322
316
324
331
320
315
325
320
315
326
331
318
313
327
329
317
315
327
329
316
314
328
328
319
320
332
327
315
320
332
326
316
322
333
326
316
324
335
329
326
336
345
338
330
341
346
335
330
339
343
325
315
324
327
313
311
326
328
316
315
327
325
310
315
341
362
382
397
395
369
333
300
310
312
322
333
324
314
322
332
325
316
324
332
323
317
328
336
326
322
333
337
325
323
336
338
327
326
340
342
330
331
346
346
337
340
354
354
348
354
368
365
356
362
375
369
359
368
379
368
353
355
357
341
327
332
335
318
308
316
320
308
302
313
317
302
315
318
304
301
315
316
305
305
317
315
304
305
317
312
303
307
320
314
303
309
320
311
302
311
322
312
303
314
322
312
306
316
322
309
304
318
323
311
306
318
322
309
306
319
321
308
308
322
321
308
308
322
320
309
313
325
318
307
313
326
319
308
316
318
309
317
326
317
310
320
328
317
310
320
326
317
313
325
328
316
311
325
327
315
313
326
325
314
315
328
325
314
318
330
326
315
317
329
324
315
321
332
324
314
322
333
322
314
325
334
323
317
327
334
327
324
339
348
338
333
343
345
335
335
345
342
323
327
325
316
318
331
326
314
317
330
323
310
314
334
342
360
403
426
397
358
334
305
290
302
322
332
322
315
324
331
319
314
327
331
318
316
330
333
322
321
335
336
324
325
341
339
327
330
343
340
331
336
349
346
336
345
359
357
350
360
371
365
358
369
381
367
378
384
372
362
369
367
348
335
340
336
318
310
321
319
304
301
314
312
301
303
314
312
302
304
316
310
299
304
317
310
299
306
316
306
300
308
319
310
302
312
318
307
301
314
320
309
304
316
319
307
305
318
319
307
307
321
321
308
308
322
321
307
308
320
307
310
322
318
307
312
324
318
307
316
326
317
308
314
323
316
311
319
327
315
310
321
326
314
309
322
326
314
310
323
325
313
313
326
324
313
313
326
325
313
316
329
323
312
318
330
323
312
319
331
323
314
321
332
321
313
322
330
318
312
324
332
320
326
332
323
322
339
347
338
334
344
344
335
335
346
339
322
319
328
322
309
314
326
320
309
317
326
318
306
313
331
343
369
418
434
397
352
324
292
283
300
326
335
320
313
326
330
319
318
330
333
321
321
334
333
321
322
338
336
323
328
342
339
328
332
347
334
340
352
346
338
346
357
353
349
361
373
366
362
373
383
374
372
384
388
374
366
374
367
345
334
338
332
313
311
320
315
300
300
314
310
299
304
314
308
297
304
315
308
299
307
319
310
300
307
317
307
300
311
317
306
300
311
317
305
302
315
318
305
304
318
304
304
319
318
306
307
319
317
307
310
323
319
307
311
322
315
305
311
324
316
305
314
324
313
307
319
327
316
309
319
326
314
312
322
325
315
312
323
327
316
314
326
328
315
313
327
326
314
315
330
325
312
317
331
325
314
318
329
324
314
322
332
323
324
330
320
315
325
334
323
316
327
332
320
316
330
333
322
320
337
343
335
338
351
346
333
337
353
350
333
330
337
328
313
316
329
323
312
318
330
322
311
317
328
332
351
397
443
427
384
352
318
273
280
318
332
321
318
331
332
319
317
331
332
320
320
333
321
323
335
333
322
326
340
337
327
333
348
340
330
338
352
345
337
347
359
352
348
360
370
362
360
376
385
374
372
385
389
376
369
379
375
354
343
347
337
318
313
324
319
303
303
315
310
298
302
316
309
297
304
316
308
300
308
317
309
300
311
318
306
300
318
305
302
315
318
306
302
315
318
304
302
315
315
304
305
318
316
303
305
317
314
303
308
322
318
306
310
322
315
305
311
321
314
305
314
324
312
305
316
324
314
308
319
326
313
307
319
323
312
309
321
325
313
310
325
325
312
313
327
325
313
314
326
324
316
327
323
313
318
330
322
312
320
332
322
314
322
330
319
313
325
332
320
313
324
331
319
315
327
331
325
328
344
349
337
333
345
347
338
339
348
339
319
316
327
322
313
318
327
320
310
316
326
316
310
333
372
404
428
424
395
343
292
275
299
312
316
330
321
318
331
333
321
320
334
334
322
325
337
335
323
327
340
336
327
332
345
339
330
337
350
343
336
346
357
350
342
354
366
361
356
369
378
370
366
380
387
378
373
386
387
369
359
364
356
335
327
334
325
307
305
317
314
300
303
314
309
299
303
317
311
300
319
310
300
307
319
311
302
309
320
309
302
312
318
307
302
315
318
305
302
315
318
304
302
316
316
304
304
318
316
303
304
320
314
299
304
317
309
297
305
317
307
299
309
319
308
298
309
319
307
301
312
320
309
304
316
321
310
307
321
326
315
311
325
327
311
326
325
313
315
328
324
313
318
332
324
313
319
331
323
313
319
331
323
314
322
331
323
316
325
333
321
315
329
339
331
329
344
347
332
331
347
350
335
329
334
327
312
313
328
326
312
313
327
322
311
312
329
338
358
402
436
411
364
337
305
273
286
319
323
316
328
334
322
316
327
332
321
320
332
336
322
321
336
339
327
326
339
340
329
330
343
343
333
338
352
349
339
345
359
355
348
359
372
366
358
369
382
374
367
377
384
373
366
372
369
349
337
340
336
317
309
319
318
303
299
311
312
300
299
311
310
298
315
311
299
303
316
310
300
304
316
307
297
306
318
307
298
308
319
309
300
308
315
305
299
310
318
306
300
312
315
303
302
313
315
304
303
316
314
302
305
319
315
301
305
319
316
304
308
319
315
305
312
323
314
305
313
324
313
304
314
324
315
307
319
327
314
326
329
320
317
332
335
325
326
339
336
319
313
323
321
309
312
324
320
309
312
325
319
309
314
325
318
326
362
401
397
369
353
334
285
261
291
325
321
316
335
340
317
313
328
334
324
321
333
337
326
325
341
340
328
329
343
343
332
336
349
345
334
340
351
341
350
363
357
352
362
374
368
366
380
379
367
363
379
386
374
366
375
372
351
339
342
338
320
314
324
320
306
304
314
313
303
305
316
317
308
302
311
308
300
308
319
311
302
311
322
312
304
312
321
311
303
311
320
310
303
314
320
312
308
319
325
318
310
317
306
306
320
319
307
309
323
320
308
311
327
325
311
316
331
326
317
326
339
334
324
331
339
316
302
315
325
314
309
319
327
316
310
321
326
317
312
324
337
350
375
400
385
352
327
310
288
278
302
328
328
318
324
337
331
320
328
340
333
323
330
341
325
335
344
338
334
348
350
330
326
342
351
343
339
352
359
349
347
361
364
354
357
374
377
366
366
385
384
361
363
379
375
356
352
356
343
325
324
333
320
308
315
321
311
303
315
325
305
294
309
320
309
304
315
320
310
304
320
324
311
308
320
323
317
309
317
307
310
323
318
305
310
325
320
309
316
327
319
308
316
327
319
313
324
324
315
310
324
334
322
316
328
337
330
327
336
334
317
312
325
330
319
306
316
321
313
314
327
324
313
315
326
325
330
357
391
389
360
343
333
301
268
288
325
323
314
325
335
326
330
337
326
320
333
339
328
325
337
341
336
329
335
338
330
331
344
344
334
336
351
350
340
345
359
355
348
357
369
363
356
365
376
368
362
370
384
363
348
355
359
340
326
331
333
317
308
318
320
309
305
318
319
307
307
319
319
307
308
321
320
308
314
331
302
309
324
318
308
314
324
318
308
316
328
319
309
318
328
318
310
321
328
317
312
323
328
317
312
325
328
317
313
326
328
317
317
331
337
318
312
328
332
324
329
342
335
322
322
329
321
311
317
328
319
310
319
329
319
310
320
328
315
313
341
370
384
383
360
321
282
280
307
315
317
330
332
319
320
333
330
319
321
335
337
328
320
330
328
322
330
343
335
326
336
345
337
328
339
350
341
335
346
354
347
344
357
364
354
351
367
372
363
361
374
375
361
359
368
360
341
334
340
331
313
312
322
316
301
305
318
313
307
318
310
300
309
319
310
302
313
321
309
302
314
322
310
305
317
322
308
304
318
319
306
306
319
320
304
304
319
317
304
306
321
318
306
310
322
316
306
311
323
317
306
313
324
315
304
313
323
314
306
316
324
315
309
320
324
312
308
321
326
313
310
322
313
311
324
323
312
314
326
322
311
316
328
323
312
315
327
322
311
317
328
321
313
320
330
320
312
322
329
318
312
324
330
319
313
324
329
318
315
327
329
317
316
328
329
316
317
331
329
316
319
331
325
313
318
332
327
316
321
331
324
314
323
335
328
320
338
334
327
336
345
337
330
341
342
325
316
325
329
317
313
326
327
315
315
328
327
313
313
331
341
354
392
419
401
366
340
312
291
299
319
333
325
314
321
332
324
315
322
331
322
317
328
336
324
318
330
337
326
323
336
340
328
326
340
341
327
328
341
340
336
352
349
339
345
360
358
351
359
373
369
360
368
381
372
359
362
366
350
335
338
339
320
310
319
323
309
301
314
317
305
303
316
316
303
301
315
316
302
302
316
314
301
303
317
313
301
306
318
311
301
308
318
312
302
308
316
307
298
307
318
309
303
312
308
302
314
319
306
302
315
318
307
303
316
318
306
306
319
319
308
309
323
321
309
311
322
320
309
314
325
320
309
315
325
317
309
320
329
319
311
320
329
318
311
322
328
317
310
324
328
317
313
327
331
318
316
328
327
315
316
329
328
315
317
329
325
315
332
327
316
321
331
324
315
324
333
323
314
325
333
323
316
329
337
328
328
344
350
338
331
343
350
339
334
344
342
324
317
327
325
312
313
327
323
312
316
327
320
305
314
338
355
381
420
429
393
347
313
291
293
306
323
332
319
313
323
330
318
312
326
330
316
329
332
321
320
332
333
319
320
335
335
324
327
340
337
329
335
348
344
335
343
359
352
345
356
369
363
357
366
379
373
366
377
384
369
359
364
363
341
327
333
329
310
305
315
315
302
298
309
308
297
298
311
309
297
299
311
307
296
301
313
306
295
302
306
298
306
315
305
296
307
316
305
298
308
316
304
298
308
315
305
302
315
318
305
303
315
316
303
304
318
318
303
305
317
314
303
308
321
316
306
310
321
314
305
311
322
315
306
313
323
313
308
319
326
315
310
321
326
316
310
322
326
315
313
325
327
313
326
326
312
315
329
326
314
319
331
326
315
322
334
327
315
322
334
326
316
324
333
325
316
326
334
324
317
329
335
323
318
330
336
326
324
342
350
341
342
353
350
339
342
356
352
336
331
337
330
318
320
332
327
317
322
333
326
314
317
331
337
355
405
451
388
355
320
279
289
322
338
328
322
333
335
323
320
335
338
325
323
337
337
324
327
341
338
327
330
345
341
332
339
351
347
337
344
357
351
344
352
364
357
352
365
376
370
364
378
388
380
375
388
393
381
374
380
377
356
345
349
341
321
316
323
320
305
305
314
301
304
317
312
302
305
316
310
301
308
318
310
303
310
320
310
302
312
320
308
301
313
319
306
303
314
318
306
304
316
320
307
304
317
317
306
305
317
315
304
308
320
314
303
309
322
316
303
310
322
313
304
310
322
314
305
315
323
313
306
316
323
312
318
322
310
308
321
324
312
308
320
323
310
310
323
322
310
310
322
320
312
315
327
322
310
314
326
319
311
319
329
320
309
318
328
319
308
319
327
316
310
321
327
316
312
327
334
325
327
345
348
333
329
345
349
337
333
342
333
314
313
327
324
312
316
328
311
315
324
318
318
346
391
422
420
401
370
323
273
282
318
321
318
328
332
320
314
327
332
320
317
332
334
322
320
335
335
322
323
336
338
329
330
343
340
330
336
350
345
335
344
356
350
343
353
365
359
352
365
377
370
365
376
385
373
367
378
379
361
349
347
327
317
324
321
305
303
314
310
298
299
311
308
296
300
312
308
298
303
314
307
296
303
314
306
298
305
315
305
297
306
313
304
298
309
314
301
297
310
313
302
299
312
315
301
297
311
312
301
301
314
313
300
301
314
310
299
304
316
310
299
304
317
311
308
318
309
301
311
319
309
302
314
321
309
303
314
320
309
305
317
320
307
304
318
320
306
306
323
322
308
312
329
331
321
326
335
329
322
331
341
333
318
317
324
313
303
312
323
313
306
315
321
312
304
317
338
356
380
406
394
356
322
296
273
276
303
326
317
316
330
329
318
320
335
333
320
324
336
332
321
327
340
334
325
333
344
338
331
341
351
342
336
348
357
347
342
357
367
358
355
369
376
365
366
383
385
374
372
385
382
364
359
366
355
333
328
333
323
307
309
321
312
299
305
316
307
298
306
316
307
300
319
299
293
308
319
307
300
313
318
306
302
315
318
305
303
315
315
306
308
320
318
304
306
321
318
305
308
321
318
312
306
314
309
302
311
324
315
304
312
323
315
306
317
322
312
309
322
328
318
314
328
333
322
323
337
330
316
320
336
334
320
315
324
320
311
325
320
305
310
322
317
308
313
322
314
317
350
386
385
356
351
333
284
254
284
322
319
312
325
334
324
320
334
337
326
323
338
339
327
328
344
343
332
340
351
339
329
338
350
344
337
344
357
350
340
350
364
358
350
360
371
366
361
371
379
371
372
377
363
358
367
364
344
332
339
336
318
312
320
321
307
305
316
315
306
314
320
309
302
308
320
316
307
311
323
316
308
316
325
315
308
315
324
317
313
317
316
306
304
320
326
313
309
320
324
311
309
324
326
310
309
324
328
317
305
318
322
314
318
331
327
318
334
330
319
329
343
334
321
322
327
318
313
324
322
307
303
318
327
317
309
319
326
315
312
337
365
381
386
368
343
313
283
278
298
309
315
329
329
316
319
332
329
320
324
336
333
325
321
330
327
322
333
342
331
325
335
344
334
330
343
350
337
335
350
357
351
354
357
351
353
369
371
361
364
377
376
362
362
370
361
344
339
342
328
316
326
324
309
301
310
318
309
301
311
320
309
301
310
321
311
305
315
320
311
312
314
312
304
305
320
321
307
307
322
322
310
311
324
319
307
309
321
318
308
319
326
310
299
309
315
305
315
323
314
306
316
325
313
307
320
326
313
309
324
328
317
315
330
336
315
313
330
336
327
325
333
326
310
311
323
319
307
313
325
320
311
316
328
319
310
324
346
345
357
383
378
350
320
301
284
285
306
325
331
321
317
328
333
322
320
333
336
322
335
337
326
327
343
347
327
324
339
340
331
339
351
343
335
343
355
348
341
351
364
357
351
364
375
367
362
373
382
371
366
375
376
359
348
353
346
327
319
328
324
310
307
319
317
311
304
310
309
300
305
319
314
304
309
322
314
303
311
322
315
306
314
323
305
316
324
313
306
317
322
310
306
318
322
309
309
327
319
303
304
320
319
308
309
322
318
306
308
321
317
305
310
321
315
304
312
325
316
305
314
326
317
308
316
324
314
307
317
324
311
306
318
325
314
309
322
326
312
310
322
324
313
311
323
323
311
312
323
313
316
328
323
312
318
331
324
313
320
331
322
311
319
329
321
314
322
331
320
314
326
333
320
315
326
331
320
315
328
331
319
317
331
332
319
318
332
330
319
320
334
334
325
328
340
335
327
336
346
338
330
341
352
340
325
329
334
321
312
324
332
322
326
330
318
313
325
331
328
345
390
415
394
371
359
324
281
293
326
330
319
321
333
329
317
322
334
327
316
325
337
330
321
330
340
330
322
334
343
333
328
339
346
336
331
343
348
337
335
351
356
345
345
359
362
354
356
372
373
363
366
380
377
364
363
374
347
343
346
333
318
319
325
314
302
309
319
310
301
309
316
306
301
310
317
305
300
313
316
303
301
315
317
305
304
317
317
305
305
318
315
303
306
320
314
302
306
319
315
304
309
320
312
303
310
319
310
304
312
321
310
302
312
318
308
302
314
320
307
303
318
307
306
318
318
307
307
319
318
308
311
323
319
307
308
322
318
308
313
325
318
308
314
326
318
309
316
325
317
309
317
324
316
311
323
328
316
310
322
326
315
313
324
325
313
312
327
328
315
315
328
327
315
316
329
325
314
319
331
326
317
327
342
338
338
347
338
331
342
349
334
323
327
330
318
310
322
330
318
314
326
329
314
310
323
331
333
359
407
417
386
361
344
300
278
304
331
329
316
319
331
325
315
322
333
324
315
324
334
326
318
328
337
328
323
333
339
329
325
338
343
332
329
340
344
334
333
347
339
339
352
354
342
345
357
354
345
350
360
352
338
340
347
332
313
312
314
298
285
288
292
281
271
281
290
277
270
281
286
275
271
283
287
275
272
286
288
278
277
288
288
275
276
289
288
276
278
294
292
279
283
296
289
280
287
299
290
280
288
301
293
284
303
293
285
295
304
294
289
301
307
296
291
304
308
299
297
309
310
296
296
311
311
299
300
314
311
300
302
315
311
300
305
318
312
302
307
318
311
303
312
322
312
305
315
324
315
308
318
324
314
310
322
326
315
314
326
328
315
313
328
329
314
313
327
326
320
333
327
316
320
334
329
319
329
346
342
333
341
351
342
333
345
353
339
327
330
333
321
315
327
332
320
317
329
332
320
315
328
341
350
380
425
421
383
354
331
291
289
315
336
335
323
326
337
332
321
329
341
335
325
333
344
337
328
337
345
336
331
342
337
333
345
351
342
340
354
358
346
345
362
366
356
358
372
375
365
369
385
383
373
379
395
386
371
372
378
362
343
343
345
330
317
321
330
316
306
315
321
310
304
318
323
311
307
319
323
311
308
321
323
310
307
320
321
310
310
324
320
307
309
323
318
306
325
319
307
313
326
318
307
316
325
316
307
318
327
315
308
317
325
312
307
320
325
313
309
322
324
312
310
322
322
311
312
325
323
311
312
324
321
311
315
327
322
310
316
328
321
309
317
328
321
311
319
330
320
312
321
329
318
311
322
328
318
314
325
331
314
326
328
317
316
327
327
317
317
329
326
314
318
332
328
317
321
336
335
328
337
351
341
329
338
351
343
332
336
339
322
314
323
328
318
313
324
329
316
310
324
326
320
333
374
412
411
387
366
335
282
276
315
327
317
320
332
327
315
319
333
328
318
324
327
319
328
338
331
324
333
341
333
327
338
345
333
328
344
350
340
337
352
355
345
346
362
366
358
360
376
377
367
371
385
381
369
371
381
369
348
344
347
334
319
320
324
312
301
309
318
307
298
308
315
305
300
310
316
304
302
315
317
305
301
315
315
303
314
314
303
305
317
314
302
304
317
313
301
307
319
313
304
309
319
312
302
310
321
310
302
312
320
309
303
313
319
308
303
315
320
308
305
318
321
308
306
319
319
308
308
320
319
307
309
323
319
307
312
326
319
307
313
326
319
309
315
329
320
310
318
326
311
321
328
317
311
323
329
316
312
323
328
315
313
325
329
317
314
327
327
316
317
329
325
313
315
330
330
322
331
345
341
330
334
348
343
331
335
343
328
313
319
326
316
309
320
327
315
309
320
323
313
318
353
391
410
400
384
354
304
268
291
318
316
319
327
315
318
331
327
317
322
334
328
319
326
338
329
320
329
339
330
323
334
344
333
328
341
349
337
334
348
354
343
341
358
363
354
354
370
373
363
366
383
384
370
370
381
374
355
349
353
339
320
318
325
316
302
306
315
305
295
303
312
304
299
307
314
304
309
316
303
299
311
315
303
301
313
316
303
302
315
313
301
304
316
313
301
304
318
314
302
305
318
313
303
308
319
311
302
310
319
311
303
312
319
308
302
315
322
311
304
316
322
309
304
316
320
308
306
321
321
307
306
320
320
307
309
323
321
309
312
324
308
314
325
318
308
316
328
318
308
318
327
316
309
320
327
317
311
322
327
314
310
324
327
315
312
324
327
316
314
328
328
318
319
334
335
327
328
340
337
331
336
345
334
317
318
327
321
312
320
329
319
311
319
328
318
310
321
338
349
377
419
416
373
337
281
283
307
330
333
320
318
329
328
317
322
335
332
322
325
338
333
323
329
342
335
325
332
344
337
328
337
349
341
333
344
355
344
339
354
361
351
348
365
374
365
363
377
380
368
369
382
380
367
362
369
358
336
329
335
326
310
310
319
310
297
302
315
307
304
314
305
298
307
317
305
299
309
317
306
301
313
316
305
301
313
316
304
302
314
314
303
302
314
315
303
302
315
314
302
304
317
313
302
308
320
312
302
307
319
311
302
311
319
309
303
313
320
309
303
314
321
309
303
315
321
309
305
319
322
308
307
320
307
308
322
321
309
310
324
320
309
312
323
319
308
316
328
320
308
316
328
320
309
319
329
317
310
321
332
326
323
334
340
329
325
339
344
333
328
337
329
315
311
323
324
313
313
326
325
313
316
327
324
330
365
411
415
378
353
336
289
264
297
331
325
317
336
325
319
331
337
325
319
333
339
327
323
336
339
327
326
340
341
330
331
346
346
334
337
351
349
340
345
360
358
350
356
371
367
359
369
382
375
369
383
391
370
361
369
373
354
339
341
341
323
312
320
323
308
303
314
315
302
300
315
314
302
306
319
316
307
320
316
312
310
314
308
300
307
319
311
300
309
320
310
302
312
319
308
302
311
318
306
300
312
320
307
304
316
322
313
310
313
311
302
304
320
317
304
306
321
320
308
310
324
319
307
313
325
318
307
316
327
318
311
319
320
310
307
319
329
319
314
327
322
318
333
340
329
324
334
331
313
310
324
326
319
310
319
320
309
313
325
323
310
312
331
348
365
387
387
357
327
307
283
276
302
323
326
318
316
327
335
324
320
333
339
330
325
334
340
328
326
339
343
333
332
351
343
326
329
347
348
338
341
357
355
343
364
361
353
361
376
370
363
373
390
377
363
371
379
366
356
358
355
338
324
328
328
313
308
320
325
308
297
309
313
302
301
316
316
303
307
321
316
303
306
320
316
304
310
320
317
309
304
313
308
305
312
322
312
303
312
321
312
304
314
323
312
307
318
320
312
324
314
304
307
323
321
309
313
329
327
314
319
332
327
320
325
340
336
323
327
337
315
302
311
324
314
308
320
327
316
308
318
327
316
309
327
352
368
385
384
355
324
300
284
284
298
316
330
328
317
320
335
331
318
322
336
332
322
327
341
340
321
322
333
325
333
343
334
329
340
349
340
336
348
356
345
341
355
362
354
353
369
373
363
368
372
371
361
362
372
365
345
339
344
334
318
317
324
315
303
308
320
311
301
308
317
307
299
310
321
316
302
306
314
307
303
315
321
310
306
317
320
307
306
319
318
305
321
321
308
307
321
318
307
313
330
313
300
306
321
317
307
312
322
316
308
317
327
316
306
320
332
321
315
328
335
327
322
330
329
314
309
320
321
307
307
326
320
301
304
320
319
307
311
322
325
333
362
395
383
350
331
316
275
267
301
325
318
311
321
332
314
324
331
321
313
326
333
323
320
332
335
322
321
334
336
327
328
340
340
328
330
344
345
334
339
354
351
343
350
365
363
353
361
374
366
355
364
375
363
347
349
351
332
317
322
325
309
301
309
313
301
296
308
311
298
297
310
311
301
301
313
313
302
303
313
302
305
317
312
301
307
318
310
300
307
318
310
301
310
319
307
299
310
320
310
303
314
320
308
304
316
319
307
304
317
319
306
305
317
317
305
307
321
318
306
309
322
318
305
308
324
319
308
313
324
316
306
315
324
315
306
315
324
314
307
317
326
313
320
324
313
310
322
324
312
310
324
326
314
311
322
323
312
314
326
323
311
316
329
323
310
315
327
321
312
319
330
321
313
321
334
325
316
326
337
327
322
334
342
334
329
338
337
319
313
323
325
314
314
326
324
312
313
326
322
308
316
342
360
383
402
403
335
302
292
305
311
324
335
324
313
323
333
323
315
326
333
323
318
328
335
324
321
333
337
326
324
339
340
330
330
344
344
333
335
349
348
339
342
357
356
349
356
371
365
356
365
377
371
362
370
380
368
355
358
358
339
324
328
330
315
307
317
319
305
300
313
302
302
315
315
303
300
316
314
300
302
318
314
302
304
316
310
299
304
315
308
300
307
318
309
300
308
317
307
301
310
318
308
303
314
318
305
302
314
317
305
301
314
316
304
303
316
316
303
304
318
315
303
306
318
314
303
306
319
314
304
308
321
313
311
320
312
304
313
323
313
306
317
321
311
307
319
323
311
307
320
322
311
309
321
323
311
311
323
323
312
313
327
323
310
314
327
322
311
317
330
323
311
317
329
322
314
321
330
320
313
326
336
330
327
339
345
336
334
346
349
337
332
342
341
322
314
326
313
314
327
325
311
313
327
322
314
328
362
390
404
402
390
354
306
283
308
320
317
327
334
323
317
327
334
322
316
328
336
325
322
335
337
326
323
337
338
326
326
340
341
331
333
346
345
334
338
352
351
342
350
364
358
352
360
374
369
361
372
384
374
365
379
364
351
354
352
332
321
326
325
308
303
316
316
303
301
314
315
302
301
315
314
303
304
317
314
305
307
318
313
302
306
319
313
303
310
322
313
304
312
321
311
305
317
323
312
307
318
323
312
307
319
324
312
309
320
321
309
308
320
321
311
312
324
321
312
326
321
311
315
327
322
310
315
326
319
310
317
328
320
311
319
328
318
311
323
330
318
312
324
327
315
313
325
329
317
316
328
327
314
314
328
327
316
318
329
326
315
319
331
325
314
320
332
325
315
322
332
324
315
325
339
333
328
340
350
337
330
344
338
329
339
336
317
315
326
327
314
313
325
326
313
314
325
322
316
332
372
404
406
391
373
338
284
276
313
322
315
323
332
323
315
324
332
322
316
327
334
324
318
330
335
323
321
335
338
326
324
338
339
331
331
345
347
335
338
352
350
341
347
362
361
352
373
370
362
369
383
374
365
371
378
362
347
348
345
329
316
320
321
307
300
312
315
303
299
310
313
300
298
312
313
301
302
314
312
301
304
317
312
299
303
315
309
298
305
318
310
299
306
317
309
299
307
317
308
301
311
317
305
300
312
317
305
303
313
317
303
313
316
304
305
319
317
304
304
318
315
304
307
320
315
304
309
321
314
304
313
324
315
305
312
323
313
306
316
324
313
307
318
323
312
307
318
325
314
310
323
324
312
309
323
325
311
310
323
323
314
315
326
322
311
315
329
322
311
316
329
325
319
330
338
328
334
345
338
330
336
341
322
308
318
325
314
308
320
324
310
307
322
324
310
316
347
378
400
401
389
356
309
273
290
312
312
318
329
323
314
320
330
324
316
323
334
325
317
326
334
325
320
332
339
329
324
336
342
329
327
341
347
337
336
350
352
343
361
363
353
356
372
371
362
367
382
377
366
372
381
371
353
351
354
338
322
324
328
314
303
311
317
304
296
307
313
302
298
311
316
303
298
312
315
304
302
315
314
300
303
316
313
300
303
316
314
302
306
319
313
302
306
318
311
302
310
320
310
301
311
321
302
313
321
309
303
314
320
309
306
317
319
307
305
318
320
309
308
320
320
308
309
323
320
308
311
323
319
308
311
324
317
307
314
326
318
307
317
326
317
309
320
327
315
309
320
327
316
311
322
327
314
311
323
326
314
311
326
328
315
312
327
327
314
318
332
326
333
348
342
328
333
346
337
320
319
324
311
299
303
311
303
295
305
311
299
291
300
308
307
323
367
405
392
362
346
316
268
276
319
330
319
319
333
332
322
327
340
336
324
328
341
336
326
334
346
339
328
338
350
342
335
344
356
345
336
347
358
347
357
363
354
353
367
373
365
364
379
382
373
374
388
386
373
371
381
372
351
345
351
338
320
320
328
319
310
310
318
311
302
310
320
311
303
312
320
311
305
314
320
310
305
318
322
309
305
318
320
306
304
319
319
307
307
319
317
306
308
321
317
305
309
323
305
309
320
313
304
312
322
314
305
313
321
310
305
316
322
311
305
315
321
309
307
319
321
308
306
319
321
309
309
320
319
307
311
323
320
309
311
324
319
308
311
323
318
309
316
327
319
308
316
326
317
308
317
326
315
309
321
326
314
307
320
327
314
310
325
314
313
328
332
322
323
338
342
329
328
343
341
330
333
342
331
313
314
326
318
308
316
326
318
309
318
326
315
316
347
387
409
399
381
355
306
265
287
319
317
315
329
330
318
315
327
329
319
320
332
331
321
323
335
331
320
326
338
333
323
330
341
335
338
348
340
333
346
356
347
342
354
366
355
352
367
375
364
362
375
379
367
364
376
375
357
348
353
340
320
315
323
317
302
303
314
307
295
299
311
306
295
303
315
308
298
306
316
307
299
308
316
304
298
309
316
305
299
311
315
302
298
312
317
304
302
314
301
302
315
314
302
306
318
315
303
306
319
313
301
306
320
314
306
312
320
311
302
312
321
310
304
315
321
310
302
314
321
310
306
320
323
309
306
320
323
309
308
321
321
310
311
324
322
310
312
326
322
311
315
327
322
311
317
328
321
312
321
334
324
314
335
326
320
333
340
332
329
337
337
319
312
322
325
313
310
324
326
313
312
326
325
312
314
337
354
373
409
418
382
338
308
284
287
304
322
335
325
315
323
335
325
321
329
336
325
318
331
338
327
322
334
339
328
326
341
344
331
330
347
349
336
336
351
352
346
360
357
350
358
372
368
359
368
383
376
365
373
383
372
356
358
360
341
325
328
330
313
303
313
316
302
297
310
313
300
299
312
313
301
302
314
313
302
304
318
315
302
305
318
312
301
305
318
314
303
309
319
312
301
310
319
309
301
311
321
310
302
314
308
302
316
320
308
305
316
319
307
305
317
319
307
307
321
320
309
311
323
319
307
311
322
318
307
312
323
318
309
316
325
316
306
316
325
315
307
318
326
314
309
321
326
313
310
321
325
313
311
324
325
314
317
330
328
317
321
335
333
322
326
342
338
323
330
320
308
315
325
318
308
315
326
317
308
318
326
316
319
350
388
407
394
379
353
304
263
288
319
317
317
329
330
318
318
331
330
318
320
333
331
320
323
337
332
321
327
340
335
327
333
344
337
329
338
350
340
333
345
358
348
341
355
365
356
353
368
374
362
377
381
368
365
377
373
351
343
348
338
320
315
322
315
302
303
313
307
295
301
313
307
296
303
316
308
299
309
318
307
299
310
319
307
300
312
317
304
300
313
317
304
300
313
315
302
302
316
314
303
303
316
313
301
307
326
320
297
298
313
310
300
306
313
303
311
321
312
304
313
320
311
304
316
322
312
306
317
322
310
307
319
323
315
316
318
315
305
308
323
324
312
316
330
329
317
320
333
330
322
331
341
329
313
317
326
315
306
316
326
317
310
324
330
308
302
316
326
332
356
397
404
371
340
326
290
261
323
329
315
318
333
331
319
324
343
333
314
319
337
332
320
328
342
335
328
336
347
337
329
341
352
340
334
347
356
346
344
363
361
347
348
366
374
364
363
376
378
368
370
386
383
366
362
369
357
338
340
339
320
306
310
321
313
301
307
316
307
299
308
317
300
310
318
309
304
319
325
302
296
312
318
308
304
317
319
306
305
319
320
306
307
320
319
305
307
321
319
314
310
316
312
304
313
324
316
305
312
324
318
310
318
328
321
314
324
336
331
316
325
337
326
318
323
324
311
306
319
323
310
310
323
323
311
310
322
310
319
352
377
384
378
368
341
304
275
284
304
313
323
332
325
320
334
334
321
316
328
337
326
323
336
342
330
327
339
345
332
330
344
346
335
334
348
349
339
341
356
356
346
352
368
365
356
363
377
375
365
372
385
376
367
370
373
356
339
340
342
326
319
323
309
303
313
317
304
300
312
314
303
301
315
316
303
303
318
316
305
306
318
317
305
309
321
315
304
309
320
312
301
309
320
312
303
311
319
310
303
313
319
308
303
314
318
307
303
317
323
311
310
324
325
312
311
327
330
321
324
335
328
310
309
322
305
311
323
315
304
311
324
315
306
312
320
315
323
360
397
397
369
352
330
277
255
293
321
312
309
323
325
312
311
325
325
314
314
326
326
315
318
331
327
317
322
335
329
318
324
338
333
323
330
343
335
327
338
351
344
336
348
360
352
347
361
369
356
353
371
356
348
353
347
327
320
326
321
306
303
313
310
296
297
312
307
294
298
311
304
295
301
313
307
297
305
317
308
299
307
316
308
302
311
319
306
300
311
317
304
302
315
318
304
302
315
318
306
305
318
317
305
307
320
317
305
308
320
315
304
309
322
316
309
321
314
306
314
324
315
307
318
325
313
307
318
326
315
310
321
326
313
311
323
325
315
315
330
330
317
320
334
334
321
324
341
340
327
325
332
323
309
313
325
318
309
316
326
319
311
320
327
315
314
338
373
395
404
400
380
337
292
284
310
315
317
329
317
316
330
331
319
320
333
331
319
322
336
333
322
326
340
335
323
330
344
336
328
337
347
338
332
344
354
346
341
353
364
355
353
367
374
364
360
375
381
366
363
373
371
352
343
348
340
322
318
327
320
305
306
317
311
299
304
317
310
300
307
316
307
298
316
306
299
310
317
306
299
310
317
305
301
312
315
304
301
314
317
304
303
316
317
303
303
319
317
303
303
316
314
303
305
319
313
301
307
320
314
304
309
321
312
303
311
320
311
303
314
322
313
304
313
318
309
306
319
321
311
308
320
322
310
308
322
322
308
322
322
310
312
325
321
310
315
328
321
310
315
327
320
311
319
329
320
312
322
329
319
313
323
330
318
314
326
331
320
315
327
332
319
316
329
331
317
317
330
330
319
320
333
330
318
321
332
328
317
322
335
332
326
333
346
341
333
341
350
341
334
342
331
317
324
327
318
314
326
329
317
313
326
326
313
319
348
380
406
415
409
375
327
285
295
315
315
321
332
325
314
321
333
325
315
323
333
325
317
326
335
326
319
330
338
329
323
334
341
331
328
342
347
335
332
347
351
341
341
357
359
349
355
374
373
361
381
378
368
371
382
374
357
356
360
343
322
322
327
313
301
308
317
305
297
307
314
303
297
309
315
302
297
309
313
302
299
312
314
303
301
314
312
299
302
314
312
300
304
318
313
301
304
317
313
303
308
319
311
302
310
319
310
302
311
320
309
303
313
318
304
315
320
309
305
319
320
307
307
321
321
308
309
321
320
307
309
322
319
308
312
325
319
308
312
325
318
308
315
327
318
309
318
328
317
308
319
328
316
310
321
327
316
311
321
326
314
311
325
327
315
314
326
326
313
313
326
326
313
315
329
324
312
317
325
316
324
336
330
323
336
348
337
329
341
350
336
326
334
337
321
311
321
327
315
313
324
327
314
311
322
322
317
334
376
414
415
393
374
337
281
276
312
323
316
321
332
324
314
321
333
326
317
326
336
327
319
329
339
330
323
334
343
332
327
341
347
335
345
351
339
339
353
357
347
349
365
366
355
360
378
377
366
370
384
381
369
373
383
368
349
349
354
342
317
313
320
308
299
307
316
304
298
310
315
303
299
312
317
304
300
312
315
303
301
316
316
304
303
318
321
309
301
312
311
302
306
318
312
302
308
320
302
311
320
311
303
312
322
311
302
313
320
309
303
316
322
310
305
320
331
309
300
314
318
306
307
321
322
308
308
323
320
309
313
326
320
307
312
326
319
308
314
325
321
318
318
320
313
313
327
338
327
321
335
344
332
327
338
338
325
317
322
322
308
307
322
309
308
320
324
317
306
321
343
365
392
400
372
334
312
286
275
292
319
331
322
315
325
336
332
318
322
332
323
317
330
337
327
322
334
340
330
327
341
344
334
333
347
347
336
338
352
354
344
354
360
355
349
360
373
370
362
369
383
379
369
377
386
373
357
359
346
329
324
325
312
306
316
318
303
300
314
315
302
301
315
318
303
302
316
316
305
311
324
311
298
305
321
317
307
311
321
315
304
311
322
314
306
314
323
318
308
307
318
310
304
315
322
312
306
318
322
309
306
319
322
310
309
327
333
311
307
324
317
321
337
337
324
322
330
321
308
312
325
318
309
314
326
324
307
306
320
317
308
318
338
352
372
392
381
347
320
301
281
282
304
326
333
323
313
326
329
318
321
335
333
321
325
337
334
323
328
342
338
327
332
344
345
330
330
343
338
332
345
355
347
340
361
353
349
363
371
365
363
373
378
367
365
375
373
354
346
357
342
315
313
326
322
306
305
317
311
299
304
316
309
299
306
316
307
298
307
319
311
302
313
326
308
296
309
319
308
304
316
321
308
304
317
321
307
305
319
321
307
306
319
318
307
308
321
319
312
324
324
319
313
322
321
315
326
340
328
315
318
323
312
303
314
323
313
305
317
324
313
309
319
322
308
306
332
358
372
383
382
362
323
288
272
284
300
312
327
323
310
316
329
324
314
320
331
324
314
322
334
327
318
328
338
328
321
331
341
330
326
336
332
331
344
350
339
338
353
358
349
351
365
367
356
359
374
370
356
357
365
354
333
327
333
321
305
308
316
305
294
301
312
302
293
302
310
302
295
306
313
303
298
308
313
303
300
312
315
302
301
313
313
301
302
314
313
301
303
316
311
298
303
318
311
299
319
311
301
309
321
310
301
310
320
311
303
312
319
309
304
316
322
309
306
318
323
313
311
323
326
313
312
328
330
320
323
336
330
312
309
321
317
304
309
322
316
305
310
323
315
305
312
322
321
326
359
399
393
365
353
334
283
269
304
324
316
313
323
326
312
326
327
314
313
328
330
318
320
332
330
320
324
338
333
321
328
342
336
325
334
345
338
331
342
353
346
341
353
365
355
351
363
373
365
360
372
377
363
355
361
356
335
326
333
328
312
308
320
316
303
305
317
313
301
306
318
313
301
307
318
311
302
310
311
301
310
321
311
302
314
321
310
304
314
321
309
306
319
322
309
306
321
324
310
306
321
321
309
309
323
320
307
310
322
318
307
314
325
319
310
320
329
320
309
316
327
318
309
320
327
316
309
319
326
316
311
321
327
315
311
324
326
314
312
325
326
313
327
326
313
315
329
325
314
316
328
324
314
320
331
323
313
321
333
324
313
321
332
322
313
323
332
321
313
325
332
319
317
333
338
324
320
337
341
329
329
345
348
335
332
340
334
317
316
329
325
313
318
331
325
312
320
330
318
311
329
355
376
401
412
401
319
293
303
310
314
328
333
319
315
327
331
320
316
331
331
318
317
331
332
319
323
336
333
322
326
339
336
324
330
343
338
329
338
350
343
336
346
359
353
348
360
371
363
360
373
381
370
366
378
380
362
353
359
353
332
322
329
325
307
304
316
312
299
300
308
296
300
313
307
296
300
311
307
296
302
312
303
295
304
313
302
295
307
316
304
297
308
314
304
301
312
318
305
302
315
315
302
301
315
314
303
305
317
312
300
303
317
311
300
304
317
311
301
306
318
308
300
310
321
311
302
311
321
311
303
315
320
309
316
321
309
306
319
323
309
307
321
323
310
308
322
322
309
311
325
321
308
310
324
320
307
312
325
319
307
313
325
316
307
316
326
316
306
318
327
319
316
332
338
326
323
339
346
335
331
343
343
325
318
326
320
308
310
326
324
307
311
324
319
304
311
332
369
417
437
403
353
319
290
285
301
323
335
321
314
323
329
320
314
325
331
318
316
332
336
323
321
335
338
325
324
337
340
328
330
344
343
333
338
353
350
338
345
361
355
348
358
374
368
361
371
385
377
370
378
388
376
365
369
366
344
329
333
330
314
305
315
299
297
312
313
300
301
314
312
301
304
316
311
299
305
316
310
299
305
317
309
298
305
317
308
299
307
318
310
302
312
318
307
301
313
319
307
303
317
319
305
303
317
319
306
304
317
318
306
306
319
317
305
308
320
316
305
310
322
315
305
311
323
315
312
323
315
306
316
325
314
306
319
326
314
311
321
325
313
309
323
325
312
311
324
324
311
312
327
326
312
314
328
326
316
323
340
337
326
334
348
341
331
338
349
338
324
326
330
317
308
320
327
317
310
322
327
315
306
320
335
345
377
422
419
375
336
312
277
304
326
326
314
317
330
324
312
318
332
325
314
321
332
324
315
324
334
326
317
327
338
326
320
332
339
331
326
338
346
335
331
347
355
345
344
359
362
354
356
370
371
361
362
375
372
356
352
358
344
324
320
327
314
298
300
309
298
287
296
304
294
287
307
295
288
299
307
296
291
303
307
295
292
303
304
293
297
313
302
286
288
304
303
290
292
306
303
292
294
307
302
290
298
311
304
291
297
309
301
292
302
310
301
294
305
312
301
297
314
312
291
291
307
312
299
297
312
318
306
304
321
321
309
310
324
326
320
328
320
302
305
317
310
300
305
319
310
302
315
319
303
295
306
317
321
339
380
397
366
338
327
295
257
271
310
323
312
310
324
326
315
315
327
327
319
326
328
320
311
319
335
331
320
325
338
332
324
333
344
336
329
340
349
341
335
347
358
349
346
361
367
354
364
373
366
362
375
376
360
354
360
352
329
322
330
322
306
307
316
310
296
302
321
309
290
297
311
305
297
307
317
309
300
310
319
307
301
312
320
308
304
319
326
303
295
312
319
307
303
315
318
304
302
317
318
304
306
319
318
312
317
319
311
305
327
321
311
320
337
327
314
318
323
312
304
311
317
309
303
315
321
310
311
321
317
304
302
325
351
364
379
382
360
325
298
281
282
295
312
329
326
315
317
333
333
313
316
330
327
320
327
338
330
321
332
340
329
322
335
345
334
328
348
345
332
330
347
351
339
357
362
353
354
369
372
361
361
375
374
364
372
374
353
334
335
343
330
313
317
326
316
304
310
320
310
302
310
319
310
307
317
313
303
301
316
322
309
305
319
323
311
307
320
320
308
308
321
325
309
301
315
315
306
312
322
318
307
313
324
318
309
317
320
312
320
330
324
319
335
339
315
302
313
320
308
303
316
320
309
306
319
321
309
308
323
320
309
322
358
379
374
367
355
318
273
261
295
315
308
313
329
323
313
320
330
321
315
324
334
325
316
328
337
326
319
332
344
333
318
329
337
329
329
342
344
334
350
351
342
346
361
361
350
354
370
369
358
363
375
366
354
357
361
345
328
330
333
321
315
319
316
306
301
316
320
308
303
316
320
308
304
317
319
306
306
319
319
306
307
320
319
306
309
323
319
305
307
321
315
304
309
324
315
304
312
323
314
305
314
324
306
319
328
317
309
322
330
317
314
329
333
324
323
332
329
311
308
321
320
305
306
320
317
306
308
320
316
305
309
318
314
318
348
383
386
361
347
333
289
258
287
320
315
309
321
327
313
310
322
328
315
311
327
330
317
314
329
329
319
319
332
332
321
323
334
324
328
341
336
328
336
348
342
336
347
361
353
346
357
368
360
353
362
369
356
346
352
349
329
319
325
325
308
301
313
313
301
299
312
312
299
300
316
313
302
304
316
312
302
305
317
312
302
308
319
310
299
308
319
310
302
310
319
309
302
313
319
308
315
319
306
303
317
319
306
305
319
320
307
306
321
318
306
307
320
317
306
310
322
317
305
310
322
317
306
313
325
316
307
316
325
315
308
317
325
314
307
319
327
315
308
319
324
313
311
323
325
313
311
324
325
312
314
326
323
311
314
326
322
311
316
328
314
319
331
325
317
324
333
327
321
328
339
329
324
337
346
330
320
328
330
318
313
326
328
315
313
326
327
314
314
327
324
317
331
367
397
397
386
379
346
295
284
314
326
322
326
334
326
317
325
335
326
318
328
336
326
319
330
339
328
322
335
340
328
324
341
331
330
341
344
333
334
349
349
339
343
360
357
347
354
371
368
358
365
378
370
359
364
372
361
345
346
348
330
317
323
327
313
304
314
319
307
303
315
317
305
304
316
317
305
305
318
314
302
305
320
316
304
306
318
314
303
308
319
313
303
309
321
314
311
322
312
304
314
322
311
303
315
321
309
304
317
322
310
307
318
321
309
306
320
322
309
309
322
320
308
310
323
319
307
311
323
319
309
314
325
319
309
315
326
317
308
319
328
318
309
319
327
316
310
321
326
314
309
321
325
313
311
326
326
313
312
325
313
314
327
327
317
319
332
330
321
327
338
333
325
333
346
332
317
321
329
318
309
318
326
316
310
322
328
315
308
319
327
325
343
392
419
394
366
349
310
275
294
325
329
317
317
329
326
314
318
331
326
314
320
332
326
316
324
337
329
320
329
339
329
324
341
332
326
339
346
334
333
349
353
342
340
357
363
354
355
371
373
362
364
378
376
362
361
368
357
338
332
338
326
309
311
319
310
298
306
314
304
296
307
313
303
297
308
315
302
297
311
317
303
298
312
315
303
300
314
314
303
302
315
313
302
304
316
313
307
318
313
303
307
321
312
302
310
321
311
301
310
320
312
303
312
320
310
304
316
323
310
304
316
322
309
305
319
321
309
307
319
322
308
308
322
320
308
311
324
318
307
312
325
319
308
315
326
319
308
314
325
319
310
319
327
317
309
319
327
317
311
322
315
310
325
330
319
316
329
333
326
326
336
335
326
332
345
338
321
319
327
321
310
314
326
319
308
316
329
320
309
315
328
329
342
387
423
401
363
343
310
272
285
319
332
321
316
327
329
317
316
330
331
318
318
332
332
320
322
336
334
323
328
340
335
327
344
339
328
337
350
342
334
345
357
350
344
358
367
359
356
370
377
367
363
376
380
367
361
368
362
342
333
337
329
311
307
317
312
297
299
312
309
296
301
314
308
297
304
317
309
297
305
316
307
298
307
315
306
299
310
317
307
300
312
316
304
301
313
315
304
316
315
303
303
315
317
306
307
320
316
303
307
321
317
304
309
321
315
304
311
321
311
302
314
324
314
306
316
323
312
306
321
325
311
306
318
324
311
306
320
325
313
312
324
322
311
313
325
323
310
314
328
321
308
313
327
323
316
322
333
327
322
330
330
325
339
348
333
319
323
326
314
308
321
326
315
312
324
326
314
313
324
327
326
349
397
423
399
368
350
307
265
288
326
329
319
321
333
327
316
324
336
327
318
328
338
329
321
331
339
329
324
337
344
331
329
344
350
335
332
348
352
341
341
358
360
346
365
367
356
361
376
374
364
370
382
376
364
367
374
358
340
339
342
326
312
317
322
309
300
308
315
301
296
310
317
305
301
312
315
304
302
315
317
305
304
318
317
303
305
319
317
304
306
320
316
304
308
320
314
304
311
322
314
304
312
321
312
303
313
323
302
315
321
310
304
316
321
308
308
318
320
308
306
319
319
307
308
322
321
308
310
323
319
307
313
327
320
306
312
325
318
307
314
325
316
308
318
328
316
308
318
326
315
309
322
327
315
310
323
329
314
311
324
324
312
314
329
329
315
318
335
333
321
325
339
327
327
333
322
309
315
326
319
310
317
328
319
310
317
326
315
311
333
365
388
402
396
369
325
283
275
301
311
315
330
330
316
317
329
330
317
320
335
331
318
322
335
330
318
327
339
332
322
329
341
335
326
337
348
338
333
344
353
343
340
353
361
352
365
370
360
360
375
379
367
365
376
373
354
348
353
344
324
320
328
321
304
305
316
309
298
305
315
306
296
303
317
310
300
308
317
306
300
311
318
310
308
308
308
300
298
311
314
301
300
312
313
301
302
316
315
302
304
316
314
302
305
319
315
303
307
319
301
308
320
312
304
315
328
309
296
309
320
310
302
315
321
310
305
316
321
308
305
320
323
310
308
320
320
308
310
324
321
310
315
329
329
322
320
327
324
318
324
336
331
324
332
338
322
308
317
326
315
306
317
324
313
310
323
326
314
310
329
337
345
372
380
346
321
299
274
277
309
334
330
319
323
336
331
320
327
339
333
326
339
342
324
318
331
344
335
329
339
349
338
331
343
351
340
335
349
357
345
343
359
362
354
362
370
365
357
362
377
376
364
366
379
373
359
354
357
342
326
327
332
320
307
318
321
302
304
316
305
297
308
315
307
300
311
318
305
301
316
322
312
309
310
311
303
304
318
316
302
303
318
316
304
306
319
314
304
314
321
305
298
310
321
313
302
309
320
312
303
315
323
314
308
318
326
316
314
332
333
312
313
334
334
318
312
322
321
309
309
322
307
308
322
318
306
315
333
317
303
326
369
386
371
357
347
317
275
269
301
315
314
323
332
322
316
329
339
328
313
323
331
321
321
335
337
326
326
340
339
327
329
344
341
329
332
348
351
340
336
348
347
343
352
365
358
349
361
374
368
358
367
376
365
356
362
343
336
333
325
310
306
318
318
304
301
315
315
301
300
316
315
303
304
318
315
303
308
322
323
307
302
316
314
305
312
321
312
302
311
322
314
304
312
321
310
304
314
321
309
304
318
323
316
304
310
315
309
311
325
325
313
315
328
327
318
323
338
331
316
325
319
307
313
325
316
307
314
324
314
306
316
327
315
316
337
360
375
376
371
356
320
281
275
300
312
314
327
330
319
320
333
330
319
323
336
333
322
326
339
334
323
329
342
335
327
334
345
337
328
337
347
337
332
345
353
345
341
354
361
351
348
363
359
356
370
373
359
355
369
359
329
323
331
324
306
304
317
314
299
300
312
305
295
301
313
305
295
304
314
306
296
306
317
307
299
309
317
305
296
309
315
304
300
312
315
301
299
312
313
301
301
313
314
301
301
315
313
302
306
317
309
298
306
317
310
299
318
309
299
307
317
307
300
311
322
313
305
315
324
316
310
322
329
320
319
332
331
314
307
317
317
304
304
317
316
304
306
318
315
304
306
318
317
321
351
389
390
356
340
329
283
257
291
321
316
309
320
327
317
310
322
329
318
313
324
330
319
316
329
333
320
334
335
325
326
340
338
327
332
347
342
331
338
353
348
339
350
364
356
348
360
372
364
356
366
374
363
352
355
354
336
326
331
329
314
307
317
318
303
301
315
315
303
302
316
314
301
303
318
314
302
305
319
314
305
309
322
315
305
312
322
313
303
313
312
304
314
321
310
305
316
322
311
309
320
325
312
310
322
324
311
309
322
323
310
311
323
321
311
312
325
322
311
315
328
321
310
317
328
319
310
318
329
320
311
320
327
317
312
323
329
319
314
327
333
320
314
326
329
317
314
326
325
311
310
323
321
308
329
329
317
322
338
332
320
327
342
339
329
334
339
325
313
321
330
322
314
325
334
323
317
327
334
321
316
335
355
369
399
417
398
358
323
295
295
307
320
336
334
321
322
337
333
320
325
338
332
320
326
339
332
323
329
340
335
328
336
344
334
329
341
347
333
345
352
341
338
353
358
347
346
365
368
358
359
373
374
363
365
377
372
354
349
355
343
325
323
328
316
303
309
318
307
297
306
316
306
296
307
315
304
297
308
315
303
298
310
315
304
300
312
315
304
301
314
315
302
302
316
314
303
304
317
313
301
304
313
302
308
320
312
301
309
319
310
303
310
319
309
301
312
319
307
301
313
320
310
304
316
319
307
306
319
321
308
306
321
320
305
306
322
321
309
310
322
319
307
312
323
319
307
314
325
317
308
316
325
314
308
318
326
316
309
321
328
316
308
322
327
315
322
325
314
312
324
325
312
313
326
325
313
318
332
329
318
324
338
332
322
330
345
340
327
327
333
320
310
317
327
316
309
320
328
317
309
321
324
312
316
345
378
405
413
402
370
321
278
290
314
314
317
331
328
314
319
332
327
315
320
332
327
317
324
337
321
329
340
331
324
333
343
334
328
338
347
338
336
349
355
345
343
359
364
355
356
372
374
364
366
382
382
369
369
379
372
356
352
356
341
322
320
326
316
302
307
316
308
299
307
316
305
297
309
317
306
298
311
319
304
298
311
315
303
300
313
316
303
301
315
303
306
319
316
306
307
319
314
303
307
320
314
302
310
320
313
304
312
322
312
303
314
323
311
303
315
323
311
305
317
323
311
306
320
323
311
308
322
322
309
310
322
321
309
311
323
322
311
314
324
320
312
318
328
320
310
317
328
318
311
320
330
319
321
329
319
313
325
328
317
312
324
328
316
315
326
327
313
313
327
329
319
322
335
332
323
330
344
338
327
335
352
346
328
327
332
322
311
319
329
320
312
321
330
320
311
320
325
317
325
363
406
423
404
385
352
296
265
298
323
320
319
331
329
316
318
331
318
320
336
334
322
325
338
332
323
331
343
334
325
335
346
337
330
341
351
342
336
349
358
348
345
360
369
359
357
372
379
367
368
383
383
370
370
380
373
352
344
349
337
317
315
323
314
300
304
314
306
296
301
313
306
297
308
315
304
297
308
315
305
299
316
304
299
312
316
303
299
313
316
305
304
316
313
301
303
317
314
301
305
317
313
302
306
317
310
299
308
321
313
302
309
320
311
303
313
321
310
303
315
321
310
303
315
321
310
305
318
320
307
305
320
322
310
309
322
321
308
311
323
321
310
313
325
320
313
329
322
309
315
326
318
309
318
327
318
310
321
330
319
312
322
328
316
312
324
328
316
315
331
333
320
319
338
340
326
328
345
346
332
330
339
330
312
314
326
321
311
318
329
321
311
317
325
316
314
340
376
404
419
410
380
331
281
274
305
314
317
329
319
316
329
332
320
321
334
333
321
326
338
335
321
326
340
338
327
334
345
340
330
338
351
344
336
347
359
349
343
357
368
358
354
369
378
368
366
381
386
372
369
380
378
359
351
353
344
324
318
325
318
303
302
313
307
295
301
313
306
295
302
314
308
299
316
307
300
308
317
307
300
310
319
308
302
311
316
304
301
315
319
304
301
314
316
305
302
315
317
304
304
317
314
303
306
319
315
304
308
320
314
303
310
322
314
304
311
322
313
305
315
323
312
306
317
323
312
305
318
324
311
308
320
324
311
310
322
322
311
325
324
311
314
326
323
310
314
328
322
311
316
329
322
311
318
328
321
312
325
335
325
317
331
341
330
322
334
347
337
328
335
334
318
311
322
323
315
313
326
324
312
315
328
323
308
318
354
383
410
422
406
362
311
271
285
307
312
324
334
323
315
323
321
317
329
335
324
320
332
336
325
322
335
339
326
326
340
341
329
330
345
346
335
338
353
352
342
347
363
360
351
359
373
369
361
370
382
374
364
371
378
365
349
349
349
330
316
321
321
305
297
308
310
298
293
307
309
296
294
308
310
298
298
311
309
297
313
310
297
302
314
308
296
302
315
306
295
303
315
306
296
304
313
304
299
310
316
303
297
310
315
304
299
313
317
304
302
313
315
302
304
317
315
303
305
318
314
304
307
319
315
304
309
320
314
304
311
322
314
304
312
323
313
304
314
322
313
306
318
324
308
321
328
316
312
326
332
320
319
331
335
325
328
338
331
310
310
322
318
306
311
324
320
309
313
325
318
306
313
332
343
367
405
415
378
340
317
286
267
290
323
332
320
316
330
334
322
324
337
330
318
320
334
336
326
327
339
337
326
331
345
340
329
337
346
337
345
357
351
343
353
366
359
354
366
380
375
361
370
382
373
368
380
384
368
359
363
357
335
326
332
328
311
307
318
317
303
302
315
312
301
305
319
313
304
315
321
306
295
307
322
314
304
313
320
311
304
313
322
309
301
312
321
309
305
319
322
309
318
320
316
310
314
314
303
306
321
320
307
310
323
320
309
313
325
321
310
319
331
325
315
323
336
328
325
339
335
319
308
318
323
310
304
318
324
313
310
320
323
312
309
322
320
313
337
379
401
389
361
344
316
269
267
308
323
314
320
332
326
317
324
336
317
328
339
331
329
337
336
325
323
338
344
333
330
342
349
337
334
349
354
343
343
359
361
352
354
369
373
367
371
375
372
362
369
384
376
358
359
363
347
330
330
334
321
310
313
319
309
308
312
309
299
297
310
318
305
300
314
319
307
303
313
318
309
308
326
310
302
315
317
308
312
321
315
305
312
325
317
305
310
323
315
306
314
323
314
305
317
333
315
302
317
329
321
315
328
335
324
324
336
335
318
311
321
320
308
313
330
320
303
307
324
321
307
312
325
318
315
340
380
390
370
357
345
306
266
285
321
313
322
334
325
319
328
335
324
320
333
336
323
323
342
335
318
320
335
338
329
331
344
341
329
335
351
349
336
342
356
352
345
354
372
367
348
357
372
366
359
367
376
364
351
356
355
334
321
326
329
315
311
311
309
299
299
313
315
303
301
313
315
302
302
317
306
308
313
309
301
308
317
310
301
309
321
312
303
311
318
308
300
313
322
311
311
314
313
304
304
319
321
309
306
320
323
311
311
326
326
313
317
335
326
315
320
330
322
308
309
321
316
302
308
324
319
310
319
319
308
303
314
326
324
335
368
386
366
341
303
268
278
316
328
314
313
328
336
313
309
326
329
317
318
333
330
318
323
336
332
322
326
341
335
330
332
336
332
326
335
347
341
336
348
358
349
344
354
366
359
356
369
372
363
358
362
362
350
341
345
339
322
316
324
318
303
305
318
314
301
306
322
306
301
317
311
299
308
318
310
300
309
320
309
302
313
322
311
304
316
319
308
311
322
316
304
304
316
318
308
306
319
320
307
308
321
319
306
308
322
319
312
305
315
314
305
311
323
319
313
321
331
322
313
324
334
325
322
336
340
311
299
313
320
311
307
321
309
307
322
324
310
311
324
324
324
344
375
381
359
342
321
290
264
290
326
324
312
322
335
326
316
326
336
327
319
331
337
325
321
334
342
330
326
344
341
324
324
340
346
334
333
347
350
338
340
355
356
348
352
368
366
355
362
376
370
359
366
377
366
351
347
328
317
327
332
319
311
319
323
311
308
320
324
310
306
320
323
312
309
322
323
312
312
325
327
316
307
319
320
309
312
325
320
308
313
326
318
307
315
327
319
308
315
325
315
309
319
326
316
307
318
324
312
305
317
322
311
307
320
322
309
306
320
322
308
320
320
306
308
324
320
308
311
325
318
307
314
331
315
300
309
322
314
305
314
323
313
305
314
322
313
306
318
324
311
307
321
324
311
308
320
322
309
309
321
321
309
310
323
322
309
311
323
318
307
311
326
321
309
316
327
320
309
317
326
318
310
318
318
309
319
327
318
313
326
333
325
324
338
343
328
325
339
340
325
322
330
324
309
310
323
321
309
311
322
317
307
310
324
325
333
368
407
396
366
347
326
281
275
309
328
317
312
322
326
315
312
325
330
318
313
326
330
318
316
329
332
320
321
334
333
322
338
334
324
329
343
339
329
336
350
346
339
349
362
356
349
359
372
364
358
368
376
365
355
361
360
342
330
334
332
315
308
317
318
303
301
312
311
299
300
314
313
302
304
315
312
301
304
317
312
300
308
318
310
301
309
319
309
302
311
321
310
303
314
321
303
315
322
310
307
321
323
310
307
319
319
308
307
320
319
306
308
321
318
307
311
323
318
307
311
324
315
306
313
326
318
309
317
326
316
308
318
327
316
310
322
327
314
309
321
326
314
311
324
326
313
313
325
327
313
313
328
327
314
315
328
325
314
318
325
316
320
332
323
314
322
332
323
316
326
333
324
316
326
333
321
315
327
332
320
316
329
332
319
319
334
337
328
330
343
345
334
337
348
344
331
331
342
332
314
316
328
322
312
318
330
322
312
319
327
315
313
336
367
391
402
401
383
341
297
290
311
314
327
328
314
311
326
329
317
317
331
331
319
320
333
330
318
323
338
334
324
330
342
335
326
335
349
340
333
344
355
346
341
354
364
355
353
368
375
366
363
377
384
373
370
382
378
358
350
356
347
327
323
330
323
308
309
319
313
302
306
320
314
303
309
319
302
311
320
312
304
314
322
311
305
316
321
311
304
316
320
308
305
320
324
310
308
321
320
308
309
322
321
309
311
323
320
307
311
323
317
307
313
325
319
306
313
323
315
307
316
325
316
308
319
328
315
308
320
325
315
311
323
327
315
312
325
327
314
312
328
315
316
329
327
314
316
331
327
315
318
330
325
316
321
332
324
314
322
331
324
315
322
331
320
314
323
329
319
315
326
330
319
316
329
332
319
317
332
335
328
331
349
349
335
335
350
349
335
335
346
336
318
319
329
323
314
319
331
324
314
322
331
319
325
348
364
395
422
413
371
332
303
295
303
315
333
335
322
319
332
332
320
320
334
332
321
324
338
334
322
327
340
335
324
331
345
338
329
336
349
343
335
343
353
346
341
354
365
356
352
365
375
368
367
381
386
375
372
385
384
368
360
365
354
334
328
333
309
309
322
314
300
304
317
309
300
306
318
309
299
307
317
308
300
309
317
308
301
313
318
306
301
313
319
306
303
316
319
306
305
318
318
306
306
318
317
308
309
320
316
305
311
323
317
304
310
321
314
304
312
322
313
306
315
323
313
307
317
325
313
306
323
312
308
320
324
311
308
322
324
313
311
324
324
312
312
324
324
312
314
326
321
310
315
328
320
309
316
326
320
310
318
328
319
311
321
330
318
310
321
329
318
314
323
328
317
314
325
328
315
313
331
337
328
331
346
343
330
335
349
346
329
329
339
327
315
326
318
307
315
328
319
308
315
324
316
320
352
395
416
404
384
355
302
266
292
319
316
315
328
328
314
313
327
326
316
318
332
330
317
321
334
329
317
323
335
331
322
329
342
335
324
334
348
339
333
343
354
345
340
355
364
355
353
368
376
366
363
378
371
367
378
372
353
341
346
335
315
311
319
314
299
301
312
305
290
298
311
304
293
300
312
304
295
303
313
305
295
305
313
303
298
310
316
304
297
312
314
302
299
313
313
301
300
312
313
302
303
317
313
301
304
317
312
299
304
319
314
300
307
321
313
301
319
311
303
314
321
311
304
314
322
311
304
315
322
310
305
318
321
307
307
321
323
310
309
322
322
309
309
324
321
309
312
325
320
309
314
325
320
310
316
328
319
310
319
329
318
311
320
328
317
311
321
330
318
311
323
329
319
320
337
345
333
332
343
344
335
347
341
323
317
327
322
312
316
328
320
309
314
327
319
306
318
341
358
387
423
419
375
331
299
281
290
306
326
332
318
314
326
330
319
314
326
331
320
319
333
333
322
322
335
335
324
326
340
338
327
334
345
341
332
341
354
347
340
350
362
355
350
363
367
362
373
383
373
368
379
384
367
357
364
358
336
325
332
326
310
306
315
311
296
298
313
309
296
298
313
309
298
302
314
309
298
305
315
308
299
307
317
308
299
308
315
306
299
309
316
306
300
311
316
304
301
313
315
304
304
317
315
303
302
318
318
305
318
317
304
309
321
315
303
309
323
316
305
313
323
315
306
315
324
313
305
316
325
313
307
318
323
314
310
322
324
312
310
323
325
313
310
323
322
311
312
326
324
313
314
327
322
312
318
330
324
312
318
330
323
314
326
340
331
323
338
346
335
330
344
350
322
327
328
315
310
322
325
314
313
325
327
315
313
334
352
371
411
428
396
347
315
286
281
298
319
333
325
316
324
333
325
316
325
336
326
319
327
335
326
322
333
339
329
324
336
340
332
333
346
348
337
335
350
353
341
343
360
361
351
356
371
371
362
368
378
369
376
386
376
361
361
364
344
327
329
333
317
305
314
317
303
296
308
313
302
297
310
315
301
298
313
315
303
301
315
314
301
302
316
313
299
303
317
312
300
305
318
311
301
307
319
310
301
310
319
310
302
312
320
309
302
313
321
310
305
316
320
309
318
320
307
306
319
319
308
308
322
322
311
313
328
327
315
321
336
333
325
328
335
323
309
312
319
312
304
311
318
308
299
308
316
309
304
314
326
336
364
413
420
377
339
314
275
269
299
328
330
318
317
331
331
317
319
332
328
317
323
337
332
321
327
339
323
333
343
335
328
338
346
337
331
343
354
346
341
355
363
352
351
367
373
363
363
378
380
369
369
380
377
358
354
359
346
326
322
328
318
303
307
316
307
294
302
311
303
294
305
315
305
300
308
315
307
301
310
317
306
301
314
317
305
302
314
317
306
303
317
305
303
316
315
303
306
319
316
303
306
319
313
303
308
319
311
301
310
322
314
306
314
323
314
309
323
330
320
315
331
340
327
321
328
324
309
304
316
318
307
307
320
319
308
308
320
317
303
309
340
364
389
411
402
361
316
278
273
293
306
322
331
320
322
331
320
313
324
331
322
316
328
333
321
319
332
336
324
323
338
339
326
328
343
343
331
334
351
350
339
345
359
356
348
357
372
366
357
366
378
369
359
367
372
355
340
342
342
321
306
313
317
303
297
307
308
295
293
306
308
296
296
313
312
299
299
314
299
302
314
310
299
303
315
308
299
307
317
307
298
307
317
307
299
309
318
308
301
310
318
306
301
313
318
304
302
315
318
305
303
317
317
306
309
325
323
312
315
329
326
317
322
337
333
317
317
323
314
302
307
319
313
304
312
321
310
303
313
321
307
305
379
396
385
372
346
302
262
274
305
312
314
328
329
316
316
330
331
320
323
336
333
321
326
338
333
323
330
343
335
325
334
348
341
334
342
353
345
339
351
360
350
346
360
367
359
357
374
379
366
365
379
381
366
362
370
364
342
335
345
338
310
306
318
314
306
319
310
299
307
320
312
303
312
324
314
305
315
322
313
307
318
325
314
312
328
326
304
303
318
322
309
308
321
324
313
312
323
323
312
312
325
323
313
319
331
326
316
321
339
335
318
325
338
328
314
318
325
314
307
318
325
313
308
320
324
313
309
323
312
324
366
400
384
356
353
335
289
263
290
318
316
317
333
329
318
324
336
332
321
326
337
331
325
340
341
325
320
335
346
334
326
338
347
337
334
345
352
342
339
354
358
348
349
365
368
358
359
374
381
365
359
374
373
358
354
361
349
331
330
336
324
310
322
315
310
311
312
304
298
310
319
309
302
314
320
308
302
316
322
311
308
319
320
307
307
328
319
301
302
317
318
305
308
321
317
305
309
325
321
310
316
327
322
312
324
339
320
309
323
334
321
306
313
321
310
302
315
323
311
306
318
321
311
309
322
323
336
364
381
369
353
345
316
269
266
305
320
311
316
329
325
316
323
334
327
317
326
336
326
319
329
339
334
320
325
336
328
324
338
343
333
330
343
347
336
338
352
354
344
346
362
362
351
358
372
368
357
362
380
363
341
342
350
336
319
321
327
314
302
309
307
300
308
316
305
300
311
316
305
299
313
317
304
303
322
314
296
299
315
316
304
303
317
315
301
303
319
315
302
306
319
313
303
311
323
316
306
315
330
320
311
321
334
326
319
326
328
311
303
314
320
307
305
317
320
306
303
317
323
315
305
312
316
323
385
379
345
329
318
278
260
293
323
320
309
317
329
321
312
320
331
321
313
323
332
321
317
328
336
324
319
331
337
326
323
338
341
329
329
343
344
334
337
352
351
341
345
361
359
349
354
367
364
353
357
366
352
338
338
341
324
310
315
321
308
300
309
317
297
308
313
302
298
311
315
304
301
314
316
303
303
317
316
303
303
317
314
302
304
317
313
302
306
319
312
300
308
320
311
300
309
320
310
302
311
320
309
303
314
320
308
302
315
319
308
305
317
318
306
305
319
320
308
308
322
321
307
309
322
319
306
311
322
313
319
329
323
316
322
333
327
320
330
342
330
318
323
328
315
307
318
325
314
308
320
323
311
308
321
322
314
326
363
393
390
372
362
335
284
272
310
323
316
320
331
325
314
321
334
326
317
324
335
326
318
329
339
328
322
334
342
331
325
337
344
335
346
350
338
338
352
356
346
347
361
363
355
358
372
372
361
365
379
374
360
362
368
354
335
335
340
327
312
315
323
314
305
313
320
310
303
313
320
308
303
315
321
308
305
318
320
308
308
319
318
307
308
321
319
305
307
321
318
306
311
324
317
306
312
324
308
315
325
315
307
317
327
315
306
317
323
313
308
320
326
314
309
321
324
311
309
322
325
313
313
326
325
313
313
328
323
311
315
328
322
312
318
329
322
312
317
330
321
312
321
330
320
311
320
328
317
311
323
329
317
311
324
329
315
312
324
327
317
315
329
316
315
330
328
314
317
331
330
319
322
334
332
321
326
342
336
329
339
349
334
319
323
332
319
311
321
329
318
312
323
329
318
313
324
326
323
334
372
409
405
386
374
340
285
281
320
330
321
322
332
328
318
322
335
329
318
325
336
328
319
329
340
330
333
344
333
325
337
346
335
330
343
349
338
336
351
356
346
346
361
365
355
356
371
373
363
365
378
375
361
361
371
360
340
338
343
329
314
315
321
309
300
308
318
310
300
308
315
305
298
309
314
304
300
312
315
303
299
312
315
303
301
313
315
301
303
318
301
305
319
314
303
307
322
315
302
308
321
314
304
311
321
311
304
312
321
313
304
316
325
312
303
315
323
312
306
317
322
310
306
320
322
311
309
322
322
310
311
323
321
309
313
326
321
309
314
326
320
309
317
328
320
310
317
328
319
310
319
327
318
311
329
319
313
324
329
318
313
326
329
319
317
332
333
322
322
337
337
326
329
347
347
334
332
339
329
315
320
328
321
313
320
331
322
312
318
328
317
310
329
355
375
403
414
397
354
312
286
297
308
314
330
333
320
317
330
331
320
321
333
332
322
325
338
333
326
339
335
325
332
345
338
328
338
348
340
334
346
355
346
342
355
365
355
351
367
376
366
362
377
382
368
365
381
378
357
348
352
344
325
320
327
320
305
306
317
313
302
303
315
309
300
306
318
309
300
308
319
307
298
309
319
308
300
311
318
306
301
313
305
302
314
316
305
302
316
317
303
303
318
317
303
305
319
316
304
308
320
315
304
310
320
314
304
311
322
313
303
313
324
314
304
314
323
312
306
317
324
311
306
319
323
312
308
322
323
312
311
324
323
312
314
327
324
311
312
326
323
311
316
328
322
312
329
319
310
320
330
320
311
320
328
320
315
328
334
324
321
334
339
329
329
346
346
328
320
329
326
311
309
326
324
311
313
327
324
309
314
328
326
327
359
409
420
389
362
339
288
266
301
328
325
316
324
331
322
316
327
332
322
317
329
334
323
321
334
336
325
339
339
327
330
345
344
329
332
350
349
337
343
357
354
344
352
368
366
358
366
378
372
363
372
382
371
359
364
365
345
330
333
333
317
307
316
316
303
300
311
312
299
297
310
311
299
301
314
310
300
303
317
311
300
304
317
310
298
305
316
307
298
307
308
300
310
317
306
300
312
317
305
302
314
318
306
303
314
316
303
302
315
316
304
304
317
314
301
306
320
316
303
307
319
313
303
310
322
314
304
311
320
313
303
313
322
311
305
317
324
312
305
316
323
313
309
320
323
311
310
323
323
310
309
323
324
315
328
325
315
321
334
330
322
330
344
336
320
319
328
318
307
315
324
317
309
318
325
313
307
320
326
320
331
374
412
407
375
354
326
274
265
308
329
318
317
329
328
318
321
335
331
319
324
337
333
321
327
340
335
324
330
343
335
326
337
349
340
332
343
354
338
352
359
349
349
369
376
355
350
368
377
368
364
378
378
366
363
370
360
340
333
338
329
312
313
321
311
299
306
317
309
299
307
316
307
299
309
320
317
300
304
316
307
302
314
320
308
305
317
320
308
305
318
317
305
304
318
318
306
307
319
316
306
310
317
305
311
321
315
306
311
321
314
306
314
324
315
307
316
325
314
307
318
326
315
310
321
325
314
311
323
327
314
314
328
329
317
318
333
333
322
324
339
337
326
329
335
324
311
314
325
318
308
314
326
319
309
318
327
316
308
321
345
363
384
392
374
336
283
274
288
311
329
330
318
318
333
334
320
324
337
335
322
325
340
339
335
330
337
334
324
332
346
339
330
340
352
344
336
348
358
350
345
358
367
358
354
369
377
366
364
378
384
371
367
376
373
352
344
349
339
318
314
322
316
301
303
316
309
297
303
315
296
303
316
308
299
307
317
307
299
309
318
308
304
313
317
306
301
314
320
307
304
316
317
305
304
316
316
305
304
318
317
303
305
317
315
302
306
319
315
303
309
321
314
303
310
321
312
304
314
322
312
306
316
323
311
305
316
322
311
308
319
322
309
307
322
309
308
322
323
314
316
326
324
317
320
334
329
321
329
341
330
313
316
323
313
304
315
322
313
306
316
324
312
306
317
325
323
338
378
407
382
352
338
308
263
275
318
327
315
317
331
329
316
320
333
328
315
321
335
331
319
325
337
331
324
332
342
334
335
345
336
331
344
352
341
334
350
358
348
346
362
369
358
359
375
377
364
364
377
376
362
358
364
353
332
328
333
323
308
309
317
310
298
304
315
306
297
304
314
305
298
308
319
307
299
311
318
307
302
313
318
306
303
316
318
305
305
318
318
305
305
319
306
308
319
315
305
310
323
316
304
310
322
315
304
311
322
314
305
314
323
313
303
314
324
314
307
317
324
312
307
320
324
311
309
323
324
311
309
324
326
314
314
326
324
314
316
327
323
312
318
330
323
313
318
329
321
312
323
332
321
313
322
332
322
315
330
319
315
327
332
318
315
328
331
319
316
331
333
322
320
333
332
324
327
340
338
328
335
350
340
324
324
333
322
313
321
333
322
313
322
332
322
313
323
330
327
336
376
415
406
379
364
336
284
280
318
333
324
321
333
333
321
321
334
333
320
324
338
333
329
340
335
326
334
346
340
328
337
349
340
333
343
352
344
338
351
359
349
347
361
369
361
359
373
378
368
367
380
380
366
364
373
363
342
337
341
331
313
313
323
316
302
306
316
309
298
306
317
308
299
308
317
308
299
310
319
307
301
314
319
307
301
313
305
302
316
318
306
305
318
317
304
305
317
317
305
306
320
316
304
310
322
316
304
310
322
314
304
311
322
313
304
312
323
313
307
316
322
311
305
317
322
311
309
318
321
310
308
321
322
310
310
324
323
310
312
325
322
310
313
325
319
309
316
327
320
309
328
319
312
321
329
318
311
321
328
317
310
324
330
317
312
324
328
316
312
327
330
317
315
328
327
315
316
330
327
315
319
337
334
321
325
341
338
327
335
349
342
329
332
340
325
312
320
328
318
311
322
330
317
311
321
326
317
324
360
397
409
394
378
348
270
304
326
320
321
332
328
318
322
336
330
318
324
337
329
320
328
339
331
321
330
342
334
325
336
347
336
331
342
349
338
336
349
356
347
345
360
365
356
357
372
375
364
366
380
378
366
367
376
364
345
341
345
334
317
314
322
313
300
303
315
306
295
304
304
295
305
314
303
297
310
316
304
300
313
316
304
300
313
317
304
302
314
314
301
302
316
315
304
305
318
315
305
307
320
315
304
308
319
312
302
312
322
313
303
312
322
312
304
316
323
312
306
318
322
310
307
321
325
312
308
321
323
311
311
326
324
311
325
321
308
314
329
324
311
315
327
321
311
319
331
322
312
319
329
319
310
321
330
318
312
323
330
320
315
326
333
325
327
346
353
332
322
338
343
331
331
342
332
315
317
328
324
313
318
329
324
313
318
330
320
319
353
397
410
387
370
351
306
272
290
318
313
327
334
322
319
332
338
326
322
336
338
326
326
341
341
328
329
344
343
330
335
349
347
341
349
350
343
338
348
361
355
349
360
373
366
360
371
382
374
368
379
386
374
365
373
370
353
344
339
331
314
311
322
321
303
301
315
316
301
302
317
312
299
301
313
302
309
327
314
297
304
318
311
304
311
320
311
303
313
321
311
306
317
322
309
303
315
321
315
310
312
315
304
304
318
319
308
309
324
318
305
310
323
319
307
311
324
318
307
314
326
320
317
315
318
311
307
320
329
317
308
318
327
317
312
323
329
316
326
327
317
320
323
321
313
314
327
327
315
318
335
336
329
334
343
337
329
335
347
336
327
326
325
314
306
316
329
319
310
319
328
317
309
323
342
354
377
400
388
342
312
298
281
285
309
329
329
318
319
336
334
321
323
336
333
322
327
340
340
331
325
336
326
335
346
338
330
340
351
342
336
350
358
349
345
358
366
356
355
370
375
366
366
386
385
363
362
376
375
360
353
356
344
324
321
329
319
306
308
318
311
299
304
316
310
300
306
322
310
293
302
315
308
302
313
319
306
301
315
320
308
303
315
319
308
306
317
306
306
320
317
304
307
320
318
314
308
312
311
304
308
319
313
305
311
321
313
304
313
322
313
305
316
323
312
306
319
324
312
308
319
323
311
307
319
321
308
307
321
321
308
306
322
321
308
310
323
320
307
311
324
317
308
314
324
316
306
315
329
321
322
336
328
323
324
330
326
323
331
332
316
308
318
320
308
305
317
318
307
307
319
318
305
306
322
330
338
369
400
382
346
325
305
269
271
304
325
317
310
319
329
319
311
320
330
321
313
323
330
320
315
330
335
323
320
334
337
326
324
337
338
327
329
343
332
336
352
350
342
350
366
362
353
363
376
370
361
367
376
365
353
354
356
336
321
324
326
311
300
308
314
302
296
307
309
297
295
309
312
300
299
311
310
300
301
315
313
300
303
317
313
302
306
318
312
301
307
319
311
300
308
318
311
304
312
319
310
303
321
309
303
316
321
307
303
315
319
306
304
319
321
308
307
320
319
307
309
323
320
308
311
324
319
308
313
326
318
308
314
326
319
310
319
327
317
309
319
327
316
311
323
327
315
311
324
328
316
313
327
328
316
314
326
327
315
316
329
325
315
316
329
325
317
330
324
313
319
329
322
314
323
333
322
312
324
333
322
315
326
334
326
327
342
349
336
330
343
347
338
333
342
337
317
315
327
326
314
316
328
324
312
316
326
322
317
341
384
410
400
385
370
328
280
292
322
322
316
325
332
320
314
326
331
319
317
331
320
318
332
334
322
322
335
335
323
325
338
337
327
330
343
339
330
336
351
349
340
348
361
355
350
360
373
366
359
371
380
370
361
370
372
352
338
343
340
319
311
319
319
303
299
312
310
296
296
311
309
298
299
312
308
297
300
311
306
296
303
315
308
297
316
308
299
307
316
305
298
308
317
306
299
311
317
306
301
312
317
304
302
315
318
305
303
316
316
304
304
318
316
304
307
320
315
302
307
320
315
304
309
321
314
303
310
320
311
303
313
323
312
303
314
321
310
305
317
322
310
307
320
324
312
308
321
323
311
323
323
310
310
325
323
310
314
326
321
311
316
328
321
311
319
331
323
313
322
331
322
314
323
332
322
317
329
337
330
329
344
351
340
336
349
353
339
335
343
338
320
319
333
330
317
319
332
329
317
322
334
326
319
337
373
399
408
402
387
348
299
288
325
320
331
337
325
319
331
335
323
318
332
336
324
323
335
338
326
327
341
342
331
333
346
344
334
338
352
350
341
345
359
355
346
356
370
365
359
371
383
375
369
381
391
381
374
382
383
364
353
357
352
331
321
328
327
311
307
319
318
304
304
317
315
302
319
315
303
306
318
314
304
309
320
314
305
310
321
312
303
312
321
311
304
315
322
311
306
318
322
310
305
318
322
310
307
320
320
307
306
321
320
307
308
320
319
308
311
324
318
307
312
325
317
305
314
325
317
308
316
325
316
309
319
327
315
308
319
326
310
322
327
314
310
322
325
311
311
325
324
312
312
326
326
312
313
327
324
312
315
328
323
313
319
330
323
312
319
330
322
313
320
331
321
313
322
331
321
314
326
333
325
325
341
348
335
332
344
348
337
333
343
338
318
314
327
325
313
316
329
323
312
317
322
312
328
358
384
405
408
392
353
306
280
301
314
315
327
334
323
317
330
334
321
318
331
335
324
323
336
336
323
323
338
338
326
329
343
341
330
334
348
345
336
342
355
351
343
352
366
361
354
366
378
371
365
377
386
376
369
379
381
364
351
355
349
328
327
323
307
304
315
313
300
302
313
311
299
302
316
310
297
303
315
311
302
309
321
312
301
308
320
308
301
312
320
308
300
312
318
308
302
313
319
306
304
316
319
306
304
318
319
306
305
317
317
306
307
320
317
304
308
322
317
306
310
322
316
306
312
323
305
315
325
314
306
316
324
314
309
320
326
312
308
320
324
313
308
322
324
310
310
324
325
311
310
324
322
312
314
326
322
311
315
326
321
310
316
327
320
311
319
328
318
311
320
329
318
310
322
330
319
315
331
340
331
331
343
344
331
332
345
343
327
320
322
308
311
325
322
310
313
327
321
308
314
334
347
368
410
417
380
337
310
284
282
300
320
330
319
311
323
330
319
315
327
332
319
316
330
332
321
320
332
333
322
323
339
337
325
328
343
339
330
337
349
344
334
344
358
355
346
357
371
365
359
370
380
371
377
383
368
356
361
359
337
324
329
326
310
303
313
312
298
296
309
307
294
297
309
306
295
300
313
309
298
302
314
306
295
304
316
306
297
305
315
305
298
309
316
304
297
310
316
303
298
310
316
303
300
313
315
302
300
315
315
302
304
317
314
300
303
318
301
305
319
313
302
308
320
312
302
310
320
312
304
312
323
311
304
316
323
312
306
318
323
310
306
319
323
311
306
320
323
310
310
323
322
310
312
324
320
307
311
326
322
310
314
325
320
310
316
329
320
311
319
329
319
310
321
329
319
313
326
339
327
324
346
333
329
344
347
331
325
331
325
311
312
325
323
311
312
326
322
310
313
327
335
349
391
425
399
353
329
304
271
284
317
332
325
317
326
334
322
315
328
335
322
318
332
335
323
321
334
338
326
326
340
340
329
331
345
344
334
338
352
348
338
346
361
356
358
374
369
360
370
384
376
369
379
389
375
363
370
373
353
328
331
331
315
307
316
317
305
303
314
313
300
300
314
314
301
303
318
314
302
307
321
316
304
310
322
312
301
310
322
311
302
312
321
311
305
321
322
304
298
312
319
308
305
318
322
311
308
320
310
309
323
322
309
310
321
320
310
312
325
321
310
314
329
329
311
308
322
318
308
315
327
318
311
321
328
318
311
322
329
319
314
323
327
316
314
327
331
318
318
340
346
327
325
338
340
331
333
349
342
326
321
328
321
309
316
328
320
308
317
328
320
308
350
371
379
393
384
352
321
296
280
284
308
330
333
321
319
333
336
326
324
337
342
329
319
333
336
326
329
342
339
328
333
347
342
333
339
353
347
337
347
360
352
346
358
374
365
352
365
376
369
367
379
385
375
373
384
381
362
353
360
350
329
322
328
325
315
315
306
296
302
316
309
297
301
315
309
298
306
319
312
301
309
322
310
303
315
315
304
300
312
320
308
304
316
319
306
305
320
320
306
305
317
317
308
313
319
308
299
305
320
317
305
309
322
316
306
310
322
316
305
311
325
322
304
309
322
314
306
317
312
306
319
323
311
309
326
329
316
315
331
336
322
315
328
333
324
325
335
326
308
312
324
318
309
315
326
318
308
313
328
323
303
308
329
345
362
382
377
348
320
304
282
277
299
325
327
318
320
324
323
315
318
331
332
319
320
336
334
321
324
339
336
325
343
339
329
335
348
342
332
342
354
348
348
356
359
350
349
364
376
367
362
376
385
372
367
378
378
359
351
356
350
328
320
328
323
307
306
319
315
301
303
315
310
299
303
315
310
306
309
310
302
297
307
318
309
299
309
317
310
304
313
320
307
303
315
319
303
316
319
307
305
318
318
304
306
320
317
304
306
317
314
305
309
320
314
303
308
319
314
306
315
324
314
309
320
328
319
313
325
335
323
313
319
321
307
301
312
316
305
303
316
317
304
303
317
317
303
304
328
349
364
382
378
350
317
291
273
276
293
311
315
306
315
325
315
307
317
325
315
309
321
328
315
311
326
332
319
316
330
333
322
322
337
337
327
329
344
344
334
338
351
351
343
350
365
362
353
361
373
366
355
360
367
352
334
333
334
319
307
312
316
303
295
305
310
298
294
306
309
297
294
309
311
299
311
309
297
300
315
314
300
303
316
312
301
305
317
310
300
306
319
310
301
309
320
311
302
312
319
310
303
315
321
308
303
317
322
310
305
320
322
308
307
320
320
308
308
322
321
309
310
323
321
309
314
326
321
309
314
326
320
311
318
329
321
312
321
331
313
323
331
320
314
326
332
319
314
329
333
320
317
330
331
318
317
331
329
317
319
333
329
316
319
334
329
317
322
335
329
318
323
334
327
321
331
340
330
325
337
345
335
328
341
352
341
330
336
336
322
318
328
332
321
318
330
330
317
319
332
327
316
328
387
404
407
399
365
318
288
308
321
317
326
336
325
316
327
335
325
318
328
335
324
320
332
338
326
323
337
341
329
327
340
344
332
331
345
346
334
336
351
350
340
347
362
359
352
360
375
371
361
369
383
376
365
372
379
366
351
353
354
335
321
326
329
314
316
320
306
301
314
317
304
303
316
316
304
304
316
314
305
309
320
316
305
307
320
315
304
309
321
314
304
312
324
315
305
314
323
313
306
317
324
313
307
319
324
311
307
319
322
311
310
321
321
309
308
322
322
309
310
323
321
308
311
325
322
311
314
327
309
316
327
319
310
318
328
319
310
320
327
317
311
321
328
317
311
322
326
316
312
322
327
315
313
327
327
314
314
329
328
315
315
329
325
313
318
331
326
314
319
331
324
313
321
333
323
312
323
334
324
315
325
335
324
318
332
339
325
322
338
344
332
329
348
336
332
340
335
318
316
330
328
316
318
331
327
314
320
332
325
316
330
359
384
409
418
405
365
320
292
307
316
318
332
338
325
319
331
336
324
322
336
338
325
324
339
341
329
328
343
342
330
332
347
345
334
339
353
347
337
345
359
354
345
355
368
363
369
381
372
367
380
389
380
373
384
388
371
358
362
358
338
327
334
331
315
310
321
319
307
307
320
317
306
309
321
317
306
311
323
317
305
309
323
317
306
313
324
315
307
317
326
314
306
318
326
315
309
321
325
313
309
323
326
313
310
323
324
312
312
325
312
312
325
322
311
315
326
319
309
317
328
321
311
318
328
321
312
319
329
319
312
321
329
318
312
323
329
316
312
325
329
317
314
328
328
314
313
328
327
315
314
329
329
316
316
329
326
315
318
331
325
313
318
332
324
313
321
331
323
314
323
331
321
314
331
320
314
326
332
321
319
337
343
330
331
345
346
334
333
346
342
326
321
327
321
308
311
323
321
310
314
326
318
306
313
330
336
355
401
423
391
352
328
294
275
291
316
326
316
310
321
325
313
310
324
326
313
312
327
328
315
314
328
327
316
318
333
331
323
336
332
324
331
344
337
330
341
354
346
339
353
365
358
353
366
377
366
360
373
378
363
353
358
354
334
322
326
321
304
300
311
308
294
294
306
303
291
293
305
302
290
296
308
301
290
297
309
302
293
301
309
301
293
303
310
300
294
305
311
298
293
307
301
296
308
311
299
298
310
311
299
299
313
311
299
301
314
311
298
301
314
309
299
303
316
309
298
306
316
308
298
308
318
312
306
308
314
304
299
311
318
308
303
315
318
306
305
317
318
308
309
321
321
309
309
323
321
308
311
324
323
315
323
339
335
326
342
328
321
332
340
323
308
318
326
315
307
318
326
314
309
319
326
313
311
342
377
395
399
392
364
323
285
286
304
306
312
328
329
320
323
336
331
321
326
338
333
322
329
344
337
326
334
344
335
329
343
354
349
332
338
349
343
342
356
361
349
350
366
371
363
380
380
369
371
388
386
375
375
385
375
362
349
346
333
318
320
328
317
302
308
318
307
298
306
316
307
301
311
317
309
309
310
311
304
303
316
319
306
306
320
321
308
306
320
319
307
310
326
327
309
302
316
314
306
312
325
318
306
314
325
316
307
317
315
308
317
327
322
306
315
324
313
307
321
328
314
310
322
325
314
314
328
324
311
313
328
332
318
310
323
322
314
319
333
329
321
330
346
341
329
336
349
340
330
341
348
318
304
319
328
316
311
322
328
314
312
327
328
320
337
376
400
383
349
339
319
277
309
327
319
321
336
333
322
327
340
335
332
331
336
329
323
334
346
339
330
338
347
338
333
344
352
341
335
349
356
347
349
353
355
347
353
371
374
363
365
381
380
367
372
388
384
369
367
374
365
337
330
338
326
312
316
324
312
301
310
318
308
303
311
318
306
309
311
301
300
315
320
308
305
316
317
304
304
319
317
304
306
320
318
308
316
319
308
301
309
322
316
305
312
323
314
305
315
324
315
306
315
324
313
307
320
333
313
300
314
323
313
309
322
325
313
310
324
327
317
318
332
330
320
324
340
335
322
322
326
311
306
318
317
309
316
326
318
312
318
325
315
309
333
362
373
376
371
357
325
293
278
292
306
314
328
329
319
319
332
331
320
325
340
327
313
320
338
335
322
326
340
336
327
333
345
337
329
339
351
342
335
346
354
348
345
358
365
356
353
369
375
363
379
382
369
364
371
365
344
336
342
333
314
311
322
314
299
300
313
308
297
302
313
304
294
304
314
305
296
306
316
304
296
306
314
304
299
310
314
302
299
311
314
301
299
312
312
300
300
314
314
300
300
315
311
299
302
314
309
298
305
317
310
299
303
314
299
309
317
307
299
308
317
307
301
313
320
310
305
316
321
310
308
322
325
314
316
331
329
311
307
317
313
299
303
317
312
302
306
319
311
300
305
318
312
309
332
366
381
370
360
349
310
264
272
306
309
305
317
323
311
306
322
326
313
311
324
325
314
315
326
314
317
333
330
318
323
337
334
324
330
343
338
330
338
351
344
337
347
359
354
351
364
374
364
358
369
377
366
358
365
361
341
330
335
332
313
307
317
315
300
299
313
310
298
302
315
311
300
303
315
311
301
306
318
310
300
308
318
309
302
310
319
309
312
318
307
302
314
319
307
304
316
320
307
305
319
320
307
305
319
318
305
307
322
319
305
308
322
318
305
311
324
318
306
312
323
316
306
317
327
318
309
317
325
314
308
320
327
316
311
322
327
314
311
324
326
315
314
328
327
315
315
327
325
312
314
327
313
318
330
325
313
318
331
324
314
322
331
322
314
324
333
321
316
328
334
321
316
327
333
320
315
328
335
325
321
335
337
328
329
343
344
333
336
348
340
323
321
331
325
314
320
333
327
315
322
333
324
313
321
338
341
357
401
421
398
367
348
314
291
303
336
324
319
329
332
320
320
333
335
323
322
336
335
323
327
342
337
325
329
343
338
328
334
347
342
332
340
352
346
338
349
360
354
349
362
373
364
362
375
383
373
370
383
385
372
365
371
365
344
334
342
336
317
313
323
320
307
308
320
314
303
308
321
314
309
321
313
303
312
321
311
302
311
320
311
303
314
321
308
303
315
321
309
305
318
321
309
307
321
321
308
310
323
320
308
310
323
318
307
312
325
317
306
312
326
319
308
315
325
317
308
317
326
316
308
319
326
314
309
319
326
316
310
322
326
315
314
325
313
314
327
326
313
313
326
324
312
315
327
322
312
316
328
322
311
317
328
320
311
320
331
320
312
321
328
318
311
323
329
317
311
324
328
315
313
328
333
324
325
339
339
330
330
344
344
331
332
344
338
319
318
330
322
309
316
326
318
308
316
326
313
305
351
370
396
414
400
359
318
288
297
306
312
327
332
317
314
327
328
315
312
328
330
317
317
330
327
315
320
334
330
319
325
339
334
323
328
341
334
329
340
352
344
337
344
353
351
349
356
371
365
360
373
380
369
369
386
399
388
365
353
347
333
328
324
319
308
324
319
318
327
327
311
316
318
340
361
351
352
353
356
353
359
364
338
308
318
335
344
329
323
326
312
311
314
306
293
287
317
326
306
309
323
315
255
239
259
249
230
220
212
194
171
171
179
176
125
120
133
110
79
70
68
76
67
63
89
80
69
96
109
80
67
95
130
90
71
97
116
103
82
117
136
98
79
58
0
0
0
0
0
0
67
140
135
95
76
78
93
91
101
109
127
142
166
181
177
135
121
103
0
19
71
0
0
8
35
61
74
85
114
121
123
133
157
160
135
108
147
174
190
183
145
121
67
0
0
0
0
0
0
0
0
0
0
0
0
0
0
0
0
0
0
0
0
0
102
210
242
290
294
271
277
252
290
363
449
496
471
440
448
410
325
265
315
437
473
446
448
432
391
308
230
217
277
359
425
434
387
356
360
336
280
216
204
255
305
346
403
438
443
475
517
515
481
443
440
423
418
433
450
431
446
569
641
641
641
636
495
349
341
426
547
620
606
564
528
511
565
630
633
593
561
568
582
566
546
535
515
501
485
485
472
452
433
439
439
424
408
408
412
402
396
397
390
382
385
406
376
356
376
403
377
358
364
382
373
355
357
353
345
338
349
362
347
335
355
359
349
348
364
364
359
352
361
363
361
362
383
377
358
376
372
352
337
340
358
374
396
427
438
418
386
369
338
310
326
358
365
357
357
374
386
379
374
395
399
382
381
394
397
389
390
400
399
391
388
405
416
410
408
427
422
412
423
438
432
427
433
453
456
449
461
482
482
479
491
508
510
499
507
521
518
505
505
506
490
480
489
477
454
458
472
475
471
447
451
455
446
441
449
448
422
426
447
447
429
424
440
440
427
430
431
428
424
425
430
414
406
421
431
424
415
422
431
425
422
435
440
425
422
436
417
400
408
434
435
421
421
430
425
421
424
432
428
414
415
432
431
412
418
430
424
416
416
425
423
419
415
423
406
395
413
423
405
394
405
415
400
387
402
410
404
395
394
384
361
364
375
376
356
347
373
377
360
353
364
360
353
357
370
377
390
433
449
418
384
368
336
313
328
359
371
364
358
370
373
368
356
367
378
364
363
379
381
367
371
384
384
366
365
387
384
368
375
393
387
375
382
399
394
384
388
397
404
391
398
416
412
395
404
419
411
404
417
419
397
381
394
394
370
349
354
358
336
325
341
345
331
328
337
341
330
327
338
333
325
328
340
334
328
337
346
337
325
335
348
336
324
331
343
341
328
335
348
337
328
332
343
334
320
329
341
328
318
331
340
328
323
331
337
327
323
330
333
320
318
331
333
318
324
332
324
313
325
339
326
310
318
331
325
315
324
336
326
318
329
335
328
325
327
333
330
332
343
339
328
325
334
334
326
325
337
342
330
335
357
351
325
332
355
344
337
333
349
324
319
340
322
303
295
289
291
274
262
263
269
251
241
250
254
241
231
239
240
240
265
317
328
284
265
260
223
176
196
230
237
220
223
240
234
211
220
245
246
237
236
251
248
232
243
262
259
247
256
269
265
260
267
277
274
263
291
305
270
267
288
297
291
293
308
311
297
296
306
300
298
298
305
299
293
287
280
266
261
252
251
240
230
232
228
229
227
221
225
227
219
225
230
221
213
225
240
221
208
219
237
220
213
231
232
215
213
234
240
222
212
235
241
229
218
229
243
226
221
240
231
216
235
242
232
227
237
239
228
226
241
254
238
225
235
248
242
232
238
251
235
234
248
256
253
240
242
251
249
256
268
254
248
244
261
264
251
254
276
266
256
262
275
269
264
