timestmp;smpleCnt;grnCnt;led2;led3;grn2Cnt;irCnt;redCnt;hr3;rr5;spo2
11:37:28.607695;83;125890;115891;128974;163692;524159;524159;60.0;0.0;0.0
11:37:28.617874;84;125670;115860;128946;163536;524159;524159;60.0;0.0;0.0
11:37:28.617874;85;125652;115854;128932;163581;524159;524159;60.0;0.0;0.0
11:37:28.627942;86;125778;115871;128944;163791;524159;524159;60.0;0.0;0.0
11:37:28.637731;87;126007;115898;128947;164100;524159;524159;60.0;0.0;0.0
11:37:28.807749;88;126281;115921;128950;164481;524159;524159;60.0;764.1;0.0
11:37:28.817917;89;126547;115930;128952;164848;524159;524159;59.0;0.0;0.0
11:37:28.827969;90;126782;115942;128945;165196;524159;524159;59.0;0.0;0.0
11:37:28.827969;91;127018;115952;128944;165550;524159;524159;59.0;0.0;0.0
11:37:28.837872;92;127264;115964;128954;165902;524159;524159;59.0;0.0;0.0
11:37:29.008086;93;127590;115999;128967;166328;524159;524159;59.0;0.0;0.0
11:37:29.017954;94;127954;116031;128971;166774;524159;524159;59.0;0.0;0.0
11:37:29.027705;95;127929;115924;128879;166860;524159;524159;59.0;0.0;0.0
11:37:29.038097;96;126599;115583;128637;165656;524159;524159;59.0;0.0;0.0
11:37:29.048443;97;124724;115274;128431;163764;524159;524159;59.0;0.0;0.0
11:37:29.207818;98;123363;115117;128324;162268;524159;524159;59.0;0.0;0.0
11:37:29.217937;99;122642;115034;128273;161418;524159;524159;59.0;0.0;0.0
11:37:29.217937;100;122371;115020;128253;161051;524159;524159;59.0;0.0;0.0
11:37:29.228020;101;122426;115019;128242;161071;524159;524159;59.0;0.0;0.0
11:37:29.237623;102;122434;114992;128206;161070;524159;524159;59.0;0.0;0.0
11:37:29.407668;103;122262;114913;128140;160918;524159;524159;59.0;0.0;0.0
11:37:29.418111;104;122054;114852;128088;160713;524159;524159;59.0;0.0;0.0
11:37:29.427702;105;121992;114837;128068;160644;524159;524159;59.0;0.0;0.0
11:37:29.437923;106;122134;114841;128066;160790;524159;524159;59.0;0.0;0.0
11:37:29.437923;107;122447;114861;128066;161124;524159;524159;59.0;0.0;0.0
11:37:29.607862;108;122822;114889;128071;161526;524159;524159;59.0;0.0;0.0
11:37:29.617913;109;123254;114919;128077;161989;524159;524159;59.0;0.0;0.0
11:37:29.627808;110;123655;114942;128084;162460;524159;524159;59.0;0.0;0.0
11:37:29.627808;111;124022;114964;128087;162910;524159;524159;59.0;978.6;0.0
11:37:29.638100;112;124373;114987;128090;163345;524159;524159;59.0;0.0;0.0
11:37:29.817801;113;124749;115016;128095;163812;524159;524159;59.0;0.0;0.0
11:37:29.822808;114;125152;115052;128110;164331;524159;524159;59.0;0.0;0.0
11:37:29.827844;115;125604;115104;128132;164896;524159;524159;59.0;0.0;0.0
11:37:29.827844;116;126088;115156;128148;165502;524159;524159;59.0;0.0;0.0
11:37:29.837686;117;126602;115209;128179;166145;524159;524159;59.0;0.0;0.0
11:37:30.017855;118;126970;115193;128152;166647;524159;524159;59.0;0.0;0.0
11:37:30.022862;119;126244;114917;127945;166077;524159;524159;59.0;0.0;0.0
11:37:30.027901;120;124632;114598;127719;164512;524159;524159;59.0;0.0;0.0
11:37:30.032907;121;123275;114424;127595;163101;524159;524159;59.0;0.0;0.0
11:37:30.037932;122;122547;114356;127548;162293;524159;524159;59.0;0.0;0.0
11:37:30.217740;123;122305;114350;127527;161976;524159;524159;59.0;0.0;0.0
11:37:30.217740;124;122423;114371;127537;162075;524159;524159;59.0;0.0;0.0
11:37:30.227827;125;122600;114377;127530;162289;524159;524159;59.0;0.0;0.0
11:37:30.227827;126;122603;114331;127481;162324;524159;524159;59.0;0.0;0.0
11:37:30.237685;127;122483;114281;127432;162233;524159;524159;59.0;0.0;0.0
11:37:30.412777;128;122464;114265;127407;162229;524159;524159;59.0;0.0;0.0
11:37:30.417853;129;122625;114279;127412;162419;524159;524159;59.0;0.0;0.0
11:37:30.427795;130;122940;114325;127424;162772;524159;524159;59.0;0.0;0.0
11:37:30.427795;131;123358;114358;127444;163247;524159;524159;59.0;0.0;0.0
11:37:30.437724;132;123808;114405;127467;163801;524159;524159;59.0;824.6;0.0
11:37:30.618022;133;124246;114442;127484;164346;524159;524159;59.0;0.0;0.0
11:37:30.627954;134;124666;114479;127492;164900;524159;524159;59.0;0.0;0.0
11:37:30.637971;135;125052;114511;127494;165425;524159;524159;59.0;0.0;0.0
11:37:30.637971;136;125449;114552;127512;165960;524159;524159;59.0;0.0;0.0
11:37:30.637971;137;125873;114589;127527;166511;524159;524159;59.0;0.0;0.0
11:37:30.807680;138;126334;114648;127558;167098;524159;524159;59.0;0.0;0.0
11:37:30.823097;139;126827;114713;127597;167735;524159;524159;61.0;0.0;0.0
11:37:30.827631;140;127356;114777;127634;168405;524159;524159;61.0;0.0;0.0
11:37:30.837717;141;127892;114840;127669;169095;524159;524159;61.0;0.0;0.0
11:37:30.842725;142;128067;114768;127596;169419;524159;524159;61.0;0.0;0.0
11:37:31.017902;143;127164;114488;127381;168619;524159;524159;61.0;0.0;0.0
11:37:31.027679;144;125905;114271;127240;167350;524159;524159;62.0;0.0;0.0
11:37:31.027679;145;125103;114195;127193;166500;524159;524159;62.0;0.0;0.0
11:37:31.027679;146;124846;114201;127191;166173;524159;524159;62.0;0.0;0.0
11:37:31.037621;147;124978;114255;127216;166274;524159;524159;62.0;0.0;0.0
11:37:31.207890;148;125313;114303;127245;166607;524159;524159;62.0;0.0;0.0
11:37:31.217988;149;125498;114305;127237;166846;524159;524159;64.0;0.0;0.0
11:37:31.228021;150;125466;114264;127195;166855;524159;524159;64.0;0.0;0.0
11:37:31.237879;151;125425;114251;127177;166834;524159;524159;64.0;0.0;0.0
11:37:31.237879;152;125525;114256;127188;166966;524159;524159;64.0;0.0;0.0
11:37:31.418091;153;125808;114304;127209;167283;524159;524159;64.0;0.0;0.0
11:37:31.427891;154;126206;114363;127237;167714;524159;524159;65.0;842.9;0.0
11:37:31.427891;155;126664;114433;127282;168224;524159;524159;65.0;0.0;0.0
11:37:31.438116;156;127108;114486;127305;168746;524159;524159;65.0;0.0;0.0
11:37:31.447813;157;127526;114542;127335;169254;524159;524159;65.0;0.0;0.0
11:37:31.612786;158;127911;114574;127348;169733;524159;524159;65.0;0.0;0.0
11:37:31.617819;159;128292;114612;127378;170194;524159;524159;67.0;0.0;0.0
11:37:31.627709;160;128683;114665;127409;170677;524159;524159;67.0;0.0;0.0
11:37:31.637791;161;129116;114727;127437;171218;524159;524159;67.0;0.0;0.0
11:37:31.637791;162;129581;114799;127476;171795;524159;524159;67.0;0.0;0.0
11:37:31.817944;163;130085;114859;127525;172401;524159;524159;67.0;0.0;0.0
11:37:31.827863;164;130102;114769;127441;172552;524159;524159;67.0;0.0;0.0
11:37:31.838127;165;129177;114522;127270;171681;524159;524159;67.0;0.0;0.0
11:37:31.838127;166;128086;114368;127164;170583;524159;524159;67.0;0.0;0.0
11:37:31.838127;167;127492;114334;127143;169909;524159;524159;67.0;0.0;0.0
11:37:32.008099;168;127371;114365;127169;169720;524159;524159;67.0;0.0;0.0
11:37:32.022984;169;127620;114438;127218;169920;524159;524159;67.0;0.0;0.0
11:37:32.028025;170;127926;114494;127244;170222;524159;524159;67.0;0.0;0.0
11:37:32.037707;171;128030;114480;127238;170339;524159;524159;67.0;0.0;0.0
11:37:32.051428;172;127955;114448;127211;170256;524159;524159;67.0;0.0;0.0
11:37:32.217610;173;127908;114449;127203;170227;524159;524159;67.0;0.0;0.0
11:37:32.227594;174;128016;114482;127227;170365;524159;524159;67.0;0.0;0.0
11:37:32.237904;175;128277;114533;127264;170650;524159;524159;67.0;0.0;0.0
11:37:32.247890;176;128622;114591;127287;171031;524159;524159;67.0;0.0;0.0
11:37:32.251946;177;129016;114648;127329;171477;524159;524159;67.0;931.8;0.0
11:37:32.417646;178;129382;114703;127358;171907;524159;524159;67.0;0.0;0.0
11:37:32.417646;179;129740;114739;127379;172347;524159;524159;68.0;0.0;0.0
11:37:32.427858;180;130068;114782;127401;172757;524159;524159;68.0;0.0;0.0
11:37:32.437843;181;130391;114830;127428;173177;524159;524159;68.0;0.0;0.0
11:37:32.437843;182;130744;114882;127461;173625;524159;524159;68.0;0.0;0.0
11:37:32.617834;183;131086;114918;127475;174044;524159;524159;68.0;0.0;0.0
11:37:32.627938;184;130795;114759;127356;173828;524159;524159;68.0;0.0;0.0
11:37:32.637982;185;129624;114505;127178;172660;524159;524159;68.0;0.0;0.0
11:37:32.642988;186;128452;114363;127075;171380;524159;524159;68.0;0.0;0.0
11:37:32.642988;187;127797;114312;127044;170564;524159;524159;68.0;0.0;0.0
11:37:32.817783;188;127584;114317;127038;170188;524159;524159;68.0;0.0;0.0
11:37:32.817783;189;127717;114365;127073;170199;524159;524159;68.0;0.0;0.0
11:37:32.827664;190;127915;114387;127085;170328;524159;524159;68.0;0.0;0.0
11:37:32.837724;191;127930;114362;127053;170333;524159;524159;68.0;0.0;0.0
11:37:32.837724;192;127809;114329;127029;170190;524159;524159;68.0;0.0;0.0
11:37:33.018024;193;127756;114318;127020;170109;524159;524159;68.0;0.0;0.0
11:37:33.018024;194;127872;114336;127036;170189;524159;524159;68.0;0.0;0.0
11:37:33.027989;195;128126;114383;127056;170412;524159;524159;68.0;0.0;0.0
11:37:33.037865;196;128463;114433;127088;170745;524159;524159;68.0;0.0;0.0
11:37:33.048050;197;128825;114479;127112;171145;524159;524159;68.0;0.0;0.0
11:37:33.218046;198;129180;114524;127136;171538;524159;524159;68.0;0.0;0.0
11:37:33.223052;199;129514;114558;127158;171906;524159;524159;68.0;0.0;0.0
11:37:33.238012;200;129828;114589;127170;172275;524159;524159;68.0;0.0;0.0
11:37:33.247655;201;130146;114629;127195;172654;524159;524159;63.0;943.1;0.0
11:37:33.247655;202;130479;114670;127223;173059;524159;524159;63.0;0.0;0.0
11:37:33.417789;203;130851;114723;127251;173507;524159;524159;63.0;0.0;0.0
11:37:33.417789;204;131252;114781;127287;173988;524159;524159;63.0;0.0;0.0
11:37:33.427643;205;131637;114839;127308;174459;524159;524159;63.0;0.0;0.0
11:37:33.437629;206;132047;114895;127353;174959;524159;524159;63.0;0.0;0.0
11:37:33.437629;207;132471;114948;127385;175473;524159;524159;63.0;0.0;0.0
11:37:33.617801;208;132376;114827;127284;175485;524159;524159;63.0;0.0;0.0
11:37:33.627759;209;131142;114521;127057;174239;524159;524159;63.0;0.0;0.0
11:37:33.637730;210;129615;114297;126913;172568;524159;524159;63.0;0.0;0.0
11:37:33.637730;211;128581;114211;126875;171282;524159;524159;63.0;0.0;0.0
11:37:33.647900;212;128069;114178;126845;170505;524159;524159;63.0;0.0;0.0
11:37:33.818137;213;127904;114195;126852;170116;524159;524159;63.0;0.0;0.0
11:37:33.837901;214;127976;114216;126863;170035;524159;524159;63.0;0.0;0.0
11:37:33.848152;215;127972;114204;126848;169903;524159;524159;63.0;0.0;0.0
11:37:33.848152;216;127802;114149;126809;169611;524159;524159;63.0;0.0;0.0
11:37:33.854098;217;127601;114115;126785;169305;524159;524159;63.0;0.0;0.0
11:37:34.017939;218;127567;114116;126784;169169;524159;524159;63.0;0.0;0.0
11:37:34.027817;219;127730;114151;126805;169250;524159;524159;63.0;0.0;0.0
11:37:34.037937;220;127993;114196;126825;169463;524159;524159;63.0;0.0;0.0
11:37:34.052991;221;128307;114227;126846;169747;524159;524159;63.0;0.0;0.0
11:37:34.054016;222;128611;114266;126858;170060;524159;524159;63.0;0.0;0.0
11:37:34.217839;223;128890;114298;126890;170361;524159;524159;63.0;0.0;0.0
11:37:34.227892;224;129141;114331;126903;170643;524159;524159;63.0;0.0;0.0
11:37:34.227892;225;129391;114357;126919;170928;524159;524159;63.0;0.0;0.0
11:37:34.247932;226;129670;114383;126938;171240;524159;524159;63.0;0.0;0.0
11:37:34.254178;227;130003;114435;126970;171618;524159;524159;63.0;0.0;0.0
11:37:34.418020;228;130353;114487;127007;172041;524159;524159;63.0;0.0;0.0
11:37:34.418020;229;130714;114547;127038;172497;524159;524159;63.0;0.0;0.0
11:37:34.427997;230;131102;114611;127074;172993;524159;524159;63.0;0.0;0.0
11:37:34.438092;231;131495;114663;127119;173494;524159;524159;63.0;0.0;0.0
11:37:34.448037;232;131870;114719;127148;173981;524159;524159;63.0;0.0;0.0
11:37:34.617789;233;132268;114779;127191;174479;524159;524159;63.0;0.0;0.0
11:37:34.627738;234;132417;114740;127153;174736;524159;524159;63.0;0.0;0.0
11:37:34.637753;235;131513;114457;126943;173824;524159;524159;63.0;0.0;0.0
11:37:34.637753;236;130045;114202;126781;172192;524159;524159;62.0;0.0;0.0
11:37:34.647825;237;128917;114097;126712;170794;524159;524159;62.0;0.0;0.0
11:37:34.817913;238;128324;114065;126697;169922;524159;524159;62.0;0.0;0.0
11:37:34.827963;239;128135;114071;126702;169510;524159;524159;62.0;0.0;0.0
11:37:34.838010;240;128218;114104;126722;169422;524159;524159;62.0;0.0;0.0
11:37:34.838010;241;128259;114099;126712;169359;524159;524159;62.0;0.0;0.0
11:37:34.847646;242;128124;114047;126675;169137;524159;524159;62.0;793.8;0.0
11:37:35.017653;243;127926;114019;126645;168841;524159;524159;62.0;0.0;0.0
11:37:35.027819;244;127860;114005;126647;168677;524159;524159;62.0;0.0;0.0
11:37:35.037862;245;127964;114034;126672;168718;524159;524159;62.0;0.0;0.0
11:37:35.042869;246;128210;114075;126681;168933;524159;524159;62.0;0.0;0.0
11:37:35.047909;247;128497;114108;126710;169224;524159;524159;62.0;0.0;0.0
11:37:35.217983;248;128792;114150;126733;169550;524159;524159;62.0;0.0;0.0
11:37:35.228090;249;129070;114186;126760;169853;524159;524159;62.0;0.0;0.0
11:37:35.228090;250;129324;114213;126769;170153;524159;524159;62.0;0.0;0.0
11:37:35.237623;251;129569;114237;126777;170447;524159;524159;62.0;0.0;0.0
11:37:35.247584;252;129840;114273;126810;170786;524159;524159;62.0;0.0;0.0
11:37:35.417635;253;130134;114314;126842;171171;524159;524159;62.0;0.0;0.0
11:37:35.427854;254;130459;114365;126869;171596;524159;524159;62.0;0.0;0.0
11:37:35.427854;255;130834;114422;126915;172067;524159;524159;62.0;0.0;0.0
11:37:35.437939;256;131220;114489;126961;172551;524159;524159;62.0;0.0;0.0
11:37:35.447569;257;131611;114551;126995;173046;524159;524159;62.0;0.0;0.0
11:37:35.627652;258;132002;114605;127032;173565;524159;524159;62.0;0.0;0.0
11:37:35.638059;259;131996;114527;126965;173677;524159;524159;62.0;0.0;0.0
11:37:35.647829;260;131041;114267;126778;172673;524159;524159;62.0;0.0;0.0
11:37:35.647829;261;129835;114075;126659;171269;524159;524159;62.0;0.0;0.0
11:37:35.658090;262;129062;114010;126622;170280;524159;524159;62.0;0.0;0.0
11:37:35.827610;263;128757;114013;126624;169809;524159;524159;62.0;0.0;0.0
11:37:35.838035;264;128816;114050;126663;169749;524159;524159;62.0;0.0;0.0
11:37:35.847897;265;129037;114088;126689;169904;524159;524159;62.0;0.0;0.0
11:37:35.855933;266;129090;114083;126676;169922;524159;524159;62.0;0.0;0.0
11:37:35.858026;267;128952;114028;126639;169728;524159;524159;62.0;973.1;0.0
11:37:36.017960;268;128807;114008;126630;169539;524159;524159;62.0;0.0;0.0
11:37:36.028010;269;128811;114025;126656;169520;524159;524159;62.0;0.0;0.0
11:37:36.037819;270;128971;114057;126663;169676;524159;524159;62.0;0.0;0.0
11:37:36.037819;271;129243;114113;126705;169946;524159;524159;62.0;0.0;0.0
11:37:36.048048;272;129571;114160;126744;170289;524159;524159;62.0;0.0;0.0
11:37:36.217663;273;129883;114210;126782;170646;524159;524159;62.0;0.0;0.0
11:37:36.227833;274;130180;114246;126801;171002;524159;524159;62.0;0.0;0.0
11:37:36.237878;275;130439;114282;126829;171329;524159;524159;62.0;0.0;0.0
11:37:36.247951;276;130695;114310;126844;171670;524159;524159;62.0;0.0;0.0
11:37:36.247951;277;130961;114357;126873;172012;524159;524159;62.0;0.0;0.0
11:37:36.427798;278;131277;114408;126922;172404;524159;524159;62.0;0.0;0.0
11:37:36.437584;279;131630;114472;126963;172846;524159;524159;62.0;0.0;0.0
11:37:36.448077;280;132016;114550;127007;173336;524159;524159;62.0;0.0;0.0
11:37:36.456763;281;132386;114596;127050;173813;524159;524159;62.0;0.0;0.0
11:37:36.457785;282;132305;114495;126974;173795;524159;524159;62.0;0.0;0.0
11:37:36.617915;283;131437;114275;126817;172835;524159;524159;62.0;0.0;0.0
11:37:36.627899;284;130455;114130;126731;171646;524159;524159;62.0;0.0;0.0
11:37:36.637827;285;129907;114097;126731;170902;524159;524159;62.0;0.0;0.0
11:37:36.642838;286;129797;114131;126744;170624;524159;524159;62.0;0.0;0.0
11:37:36.647897;287;130011;114208;126813;170772;524159;524159;62.0;0.0;0.0
11:37:36.818077;288;130256;114235;126827;170969;524159;524159;62.0;0.0;0.0
11:37:36.827612;289;130281;114210;126810;170935;524159;524159;62.0;0.0;0.0
11:37:36.837649;290;130133;114183;126794;170722;524159;524159;62.0;0.0;0.0
11:37:36.837649;291;130058;114173;126792;170579;524159;524159;62.0;0.0;0.0
11:37:36.847908;292;130161;114209;126827;170627;524159;524159;62.0;0.0;0.0
11:37:37.027876;293;130375;114255;126856;170822;524159;524159;62.0;1050.7;0.0
11:37:37.037654;294;130681;114312;126903;171136;524159;524159;62.0;0.0;0.0
11:37:37.047740;295;131004;114373;126946;171503;524159;524159;62.0;0.0;0.0
11:37:37.047740;296;131339;114421;126985;171890;524159;524159;62.0;0.0;0.0
11:37:37.057914;297;131632;114463;127014;172231;524159;524159;62.0;0.0;0.0
11:37:37.217768;298;131885;114502;127045;172539;524159;524159;62.0;0.0;0.0
11:37:37.227830;299;132147;114545;127076;172857;524159;524159;62.0;0.0;0.0
11:37:37.237926;300;132420;114589;127124;173193;524159;524159;62.0;0.0;0.0
11:37:37.237926;301;132722;114653;127165;173565;524159;524159;62.0;0.0;0.0
11:37:37.253063;302;133070;114718;127211;173977;524159;524159;62.0;0.0;0.0
11:37:37.417842;303;133305;114721;127212;174275;524159;524159;62.0;0.0;0.0
11:37:37.427991;304;132725;114516;127066;173625;524159;524159;62.0;0.0;0.0
11:37:37.437759;305;131563;114291;126923;172216;524159;524159;62.0;0.0;0.0
11:37:37.437759;306;130601;114199;126870;170963;524159;524159;62.0;0.0;0.0
11:37:37.447696;307;130107;114183;126870;170203;524159;524159;62.0;0.0;0.0
11:37:37.617929;308;130007;114215;126907;169897;524159;524159;62.0;0.0;0.0
11:37:37.627757;309;130153;114269;126938;169891;524159;524159;62.0;0.0;0.0
11:37:37.637749;310;130223;114260;126941;169866;524159;524159;62.0;0.0;0.0
11:37:37.637749;311;130086;114218;126914;169624;524159;524159;62.0;0.0;0.0
11:37:37.648021;312;129880;114189;126889;169313;524159;524159;62.0;0.0;0.0
11:37:37.827924;313;129813;114192;126908;169166;524159;524159;62.0;0.0;0.0
11:37:37.837810;314;129907;114220;126926;169208;524159;524159;62.0;0.0;0.0
11:37:37.837810;315;130103;114269;126966;169382;524159;524159;62.0;0.0;0.0
11:37:37.847815;316;130358;114311;126995;169638;524159;524159;61.0;0.0;0.0
11:37:37.847815;317;130647;114356;127032;169951;524159;524159;61.0;0.0;0.0
11:37:38.018053;318;130914;114396;127059;170270;524159;524159;61.0;988.7;0.0
11:37:38.027699;319;131147;114423;127078;170545;524159;524159;61.0;0.0;0.0
11:37:38.037819;320;131382;114462;127106;170838;524159;524159;61.0;0.0;0.0
11:37:38.047875;321;131629;114501;127135;171149;524159;524159;60.0;0.0;0.0
11:37:38.047875;322;131901;114547;127168;171495;524159;524159;60.0;0.0;0.0
11:37:38.218070;323;132218;114598;127210;171879;524159;524159;60.0;0.0;0.0
11:37:38.227764;324;132562;114656;127249;172315;524159;524159;60.0;0.0;0.0
11:37:38.237652;325;132915;114720;127291;172769;524159;524159;60.0;0.0;0.0
11:37:38.247845;326;133095;114703;127272;173042;524159;524159;59.0;0.0;0.0
11:37:38.258198;327;132299;114437;127090;172187;524159;524159;59.0;0.0;0.0
11:37:38.418059;328;130872;114185;126918;170489;524159;524159;59.0;0.0;0.0
11:37:38.427742;329;129683;114048;126844;168951;524159;524159;59.0;0.0;0.0
11:37:38.437830;330;128991;114004;126823;167943;524159;524159;59.0;0.0;0.0
11:37:38.447831;331;128677;113983;126813;167376;524159;524159;59.0;0.0;0.0
11:37:38.452846;332;128638;114007;126839;167157;524159;524159;59.0;0.0;0.0
11:37:38.617845;333;128650;113993;126831;167028;524159;524159;59.0;0.0;0.0
11:37:38.627632;334;128516;113965;126796;166756;524159;524159;59.0;0.0;0.0
11:37:38.637697;335;128291;113916;126769;166411;524159;524159;59.0;0.0;0.0
11:37:38.647897;336;128179;113899;126765;166200;524159;524159;59.0;0.0;0.0
11:37:38.647897;337;128229;113924;126786;166203;524159;524159;59.0;0.0;0.0
11:37:38.827695;338;128426;113964;126815;166366;524159;524159;59.0;0.0;0.0
11:37:38.827695;339;128687;114006;126852;166630;524159;524159;59.0;0.0;0.0
11:37:38.837822;340;128966;114040;126873;166938;524159;524159;59.0;911.3;0.0
11:37:38.847832;341;129227;114073;126888;167245;524159;524159;61.0;0.0;0.0
11:37:38.847832;342;129452;114111;126916;167538;524159;524159;61.0;0.0;0.0
11:37:39.028040;343;129684;114131;126936;167838;524159;524159;61.0;0.0;0.0
11:37:39.037898;344;129940;114161;126963;168156;524159;524159;61.0;0.0;0.0
11:37:39.042906;345;130223;114206;126994;168513;524159;524159;61.0;0.0;0.0
11:37:39.047967;346;130542;114259;127034;168929;524159;524159;63.0;0.0;0.0
11:37:39.059324;347;130872;114316;127078;169383;524159;524159;63.0;0.0;0.0
11:37:39.227778;348;131230;114379;127119;169871;524159;524159;63.0;0.0;0.0
11:37:39.227778;349;131592;114440;127158;170372;524159;524159;63.0;0.0;0.0
11:37:39.237851;350;131944;114479;127190;170862;524159;524159;63.0;0.0;0.0
11:37:39.247813;351;131801;114364;127095;170807;524159;524159;64.0;0.0;0.0
11:37:39.252820;352;130674;114084;126894;169551;524159;524159;64.0;0.0;0.0
11:37:39.427755;353;129378;113885;126785;167960;524159;524159;64.0;0.0;0.0
11:37:39.427755;354;128502;113808;126735;166786;524159;524159;64.0;0.0;0.0
11:37:39.437824;355;128065;113785;126727;166109;524159;524159;64.0;0.0;0.0
11:37:39.447958;356;127947;113786;126738;165825;524159;524159;66.0;0.0;0.0
11:37:39.452965;357;127998;113813;126754;165783;524159;524159;66.0;0.0;0.0
11:37:39.627697;358;127961;113803;126751;165689;524159;524159;66.0;0.0;0.0
11:37:39.627697;359;127810;113758;126722;165460;524159;524159;66.0;0.0;0.0
11:37:39.637719;360;127664;113738;126707;165230;524159;524159;66.0;0.0;0.0
11:37:39.647717;361;127653;113755;126724;165160;524159;524159;67.0;0.0;0.0
11:37:39.647717;362;127810;113783;126746;165296;524159;524159;67.0;862.4;0.0
11:37:39.828017;363;128071;113835;126775;165583;524159;524159;67.0;0.0;0.0
11:37:39.847938;364;128378;113880;126812;165936;524159;524159;67.0;0.0;0.0
11:37:39.847938;365;128666;113922;126839;166303;524159;524159;67.0;0.0;0.0
11:37:39.847938;366;128953;113959;126872;166666;524159;524159;67.0;0.0;0.0
11:37:39.859549;367;129212;113990;126895;167010;524159;524159;67.0;0.0;0.0
11:37:40.027659;368;129462;114036;126925;167358;524159;524159;67.0;0.0;0.0
11:37:40.037760;369;129741;114079;126960;167735;524159;524159;67.0;0.0;0.0
11:37:40.048065;370;130057;114130;126983;168151;524159;524159;67.0;0.0;0.0
11:37:40.057903;371;130395;114192;127039;168624;524159;524159;67.0;0.0;0.0
11:37:40.059924;372;130772;114251;127085;169125;524159;524159;67.0;0.0;0.0
11:37:40.228022;373;131143;114318;127129;169634;524159;524159;67.0;0.0;0.0
11:37:40.228022;374;131525;114379;127178;170171;524159;524159;67.0;0.0;0.0
11:37:40.242829;375;131921;114441;127222;170709;524159;524159;67.0;0.0;0.0
11:37:40.252894;376;132284;114495;127263;171202;524159;524159;67.0;0.0;0.0
11:37:40.259964;377;132124;114357;127159;171112;524159;524159;67.0;0.0;0.0
11:37:40.259964;378;131072;114085;126972;169920;524159;524159;67.0;0.0;0.0
11:37:40.637855;379;129925;113925;126869;168506;524159;524159;67.0;0.0;0.0
11:37:40.658037;380;129239;113874;126845;167557;524159;524159;67.0;0.0;0.0
11:37:40.660558;381;128951;113872;126852;167076;524159;524159;66.0;0.0;0.0
11:37:40.660558;382;128975;113916;126884;166986;524159;524159;66.0;0.0;0.0
11:37:40.667575;383;129102;113937;126905;167068;524159;524159;66.0;0.0;0.0
11:37:40.667575;384;129117;113920;126893;167069;524159;524159;66.0;0.0;0.0
11:37:40.677686;385;128974;113897;126867;166853;524159;524159;66.0;923.8;0.0
11:37:40.677686;386;128876;113881;126864;166696;524159;524159;66.0;0.0;0.0
11:37:40.687633;387;128938;113900;126884;166716;524159;524159;66.0;0.0;0.0
11:37:40.697571;388;129115;113948;126922;166903;524159;524159;66.0;0.0;0.0
11:37:41.027881;389;129395;114006;126964;167236;524159;524159;66.0;0.0;0.0
11:37:41.037998;390;129710;114051;127001;167626;524159;524159;66.0;0.0;0.0
11:37:41.048048;391;130015;114102;127040;168027;524159;524159;66.0;0.0;0.0
11:37:41.060850;392;130289;114139;127064;168393;524159;524159;66.0;0.0;0.0
11:37:41.077667;393;130550;114176;127097;168766;524159;524159;66.0;0.0;0.0
11:37:41.077667;394;130807;114219;127127;169145;524159;524159;66.0;0.0;0.0
11:37:41.077667;395;131082;114262;127159;169539;524159;524159;66.0;0.0;0.0
11:37:41.087814;396;131398;114327;127192;169995;524159;524159;66.0;0.0;0.0
11:37:41.087814;397;131727;114385;127236;170464;524159;524159;66.0;0.0;0.0
11:37:41.227612;398;132117;114450;127290;170984;524159;524159;66.0;0.0;0.0
11:37:41.247895;399;132488;114522;127341;171479;524159;524159;66.0;0.0;0.0
11:37:41.257734;400;132877;114595;127379;172022;524159;524159;66.0;0.0;0.0
11:37:41.261275;401;133266;114650;127426;172561;524159;524159;66.0;0.0;0.0
11:37:41.261275;402;133426;114611;127396;172845;524159;524159;66.0;0.0;0.0
11:37:41.267801;403;132765;114374;127236;172127;524159;524159;66.0;0.0;0.0
11:37:41.627850;404;131722;114175;127098;170873;524159;524159;66.0;0.0;0.0
11:37:41.642904;405;130947;114099;127060;169872;524159;524159;66.0;0.0;0.0
11:37:41.657718;406;130622;114108;127069;169375;524159;524159;66.0;0.0;0.0
11:37:41.667798;407;130605;114146;127101;169267;524159;524159;66.0;0.0;0.0
11:37:41.677990;408;130774;114199;127133;169420;524159;524159;66.0;0.0;0.0
11:37:41.682996;409;130875;114196;127136;169530;524159;524159;66.0;0.0;0.0
11:37:41.688032;410;130828;114172;127123;169467;524159;524159;66.0;982.1;0.0
11:37:41.688032;411;130725;114152;127104;169334;524159;524159;66.0;0.0;0.0
11:37:41.688032;412;130757;114168;127120;169338;524159;524159;66.0;0.0;0.0
11:37:41.698039;413;130922;114209;127153;169535;524159;524159;66.0;0.0;0.0
11:37:42.027686;414;131181;114262;127192;169844;524159;524159;66.0;0.0;0.0
11:37:42.042822;415;131512;114327;127235;170257;524159;524159;66.0;0.0;0.0
11:37:42.047867;416;131816;114379;127276;170667;524159;524159;66.0;0.0;0.0
11:37:42.057791;417;132128;114426;127318;171107;524159;524159;66.0;0.0;0.0
11:37:42.061317;418;132423;114463;127342;171510;524159;524159;66.0;0.0;0.0
11:37:42.067863;419;132693;114506;127370;171889;524159;524159;66.0;0.0;0.0
11:37:42.077849;420;132976;114549;127401;172310;524159;524159;66.0;0.0;0.0
11:37:42.077849;421;133300;114605;127440;172742;524159;524159;66.0;0.0;0.0
11:37:42.087815;422;133649;114665;127490;173213;524159;524159;66.0;0.0;0.0
11:37:42.227596;423;134018;114743;127540;173720;524159;524159;66.0;0.0;0.0
11:37:42.237668;424;134414;114819;127598;174261;524159;524159;66.0;0.0;0.0
11:37:42.247588;425;134802;114878;127636;174790;524159;524159;66.0;0.0;0.0
11:37:42.247588;426;134767;114771;127559;174844;524159;524159;66.0;0.0;0.0
11:37:42.261591;427;134021;114566;127415;174003;524159;524159;66.0;0.0;0.0
11:37:42.267615;428;133207;114442;127340;173022;524159;524159;66.0;0.0;0.0
11:37:42.427587;429;132775;114431;127345;172432;524159;524159;66.0;0.0;0.0
11:37:42.437815;430;132734;114482;127386;172288;524159;524159;66.0;0.0;0.0
11:37:42.442822;431;132970;114559;127443;172498;524159;524159;66.0;0.0;0.0
11:37:42.447861;432;133223;114602;127473;172765;524159;524159;66.0;0.0;0.0
11:37:42.457867;433;133270;114587;127458;172830;524159;524159;66.0;0.0;0.0
11:37:42.627647;434;133183;114566;127446;172738;524159;524159;66.0;0.0;0.0
11:37:42.637826;435;133147;114571;127454;172683;524159;524159;66.0;0.0;0.0
11:37:42.647885;436;133256;114601;127482;172787;524159;524159;66.0;1033.2;0.0
11:37:42.657987;437;133485;114664;127524;173025;524159;524159;66.0;0.0;0.0
11:37:42.662037;438;133796;114723;127571;173375;524159;524159;66.0;0.0;0.0
11:37:42.827701;439;134132;114783;127610;173755;524159;524159;66.0;0.0;0.0
11:37:42.837853;440;134458;114841;127654;174154;524159;524159;66.0;0.0;0.0
11:37:42.837853;441;134752;114872;127687;174538;524159;524159;66.0;0.0;0.0
11:37:42.847855;442;135015;114924;127711;174896;524159;524159;66.0;0.0;0.0
11:37:42.857901;443;135287;114969;127753;175235;524159;524159;66.0;0.0;0.0
11:37:43.237549;444;135582;115017;127797;175610;524159;524159;66.0;0.0;0.0
11:37:43.247892;445;135903;115079;127837;176021;524159;524159;66.0;0.0;0.0
11:37:43.257571;446;136247;115137;127885;176472;524159;524159;66.0;0.0;0.0
11:37:43.262924;447;136617;115219;127939;176951;524159;524159;66.0;0.0;0.0
11:37:43.267966;448;136878;115227;127940;177331;524159;524159;66.0;0.0;0.0
11:37:43.267966;449;136475;115048;127809;176899;524159;524159;66.0;0.0;0.0
11:37:43.277572;450;135562;114855;127685;175778;524159;524159;66.0;0.0;0.0
11:37:43.287825;451;134803;114780;127649;174774;524159;524159;66.0;0.0;0.0
11:37:43.287825;452;134471;114793;127670;174219;524159;524159;66.0;0.0;0.0
11:37:43.297654;453;134486;114848;127713;174083;524159;524159;66.0;0.0;0.0
11:37:43.427573;454;134695;114916;127779;174229;524159;524159;66.0;0.0;0.0
11:37:43.437714;455;134809;114936;127781;174319;524159;524159;66.0;0.0;0.0
11:37:43.447774;456;134729;114899;127759;174184;524159;524159;66.0;0.0;0.0
11:37:43.447774;457;134578;114870;127749;173965;524159;524159;66.0;0.0;0.0
11:37:43.463045;458;134537;114897;127761;173856;524159;524159;66.0;0.0;0.0
11:37:43.627672;459;134652;114927;127800;173924;524159;524159;66.0;0.0;0.0
11:37:43.637973;460;134869;114978;127841;174116;524159;524159;66.0;0.0;0.0
11:37:43.647544;461;135133;115030;127877;174386;524159;524159;66.0;1014.6;0.0
11:37:43.657922;462;135381;115077;127909;174675;524159;524159;66.0;0.0;0.0
11:37:43.662812;463;135624;115121;127940;174953;524159;524159;66.0;0.0;0.0
11:37:43.827585;464;135841;115154;127960;175217;524159;524159;66.0;0.0;0.0
11:37:43.837743;465;136043;115182;127982;175477;524159;524159;66.0;0.0;0.0
11:37:43.847647;466;136251;115223;128014;175730;524159;524159;66.0;0.0;0.0
11:37:43.847647;467;136493;115269;128058;176036;524159;524159;66.0;0.0;0.0
11:37:43.857546;468;136772;115333;128098;176376;524159;524159;66.0;0.0;0.0
11:37:44.237531;469;137090;115388;128146;176771;524159;524159;66.0;0.0;0.0
11:37:44.247588;470;137307;115389;128139;177057;524159;524159;66.0;0.0;0.0
11:37:44.247588;471;136740;115181;127981;176394;524159;524159;66.0;0.0;0.0
11:37:44.262963;472;135543;114935;127821;174912;524159;524159;66.0;0.0;0.0
11:37:44.267981;473;134479;114818;127755;173509;524159;524159;66.0;0.0;0.0
11:37:44.267981;474;133852;114785;127747;172614;524159;524159;66.0;0.0;0.0
11:37:44.277704;475;133581;114799;127757;172137;524159;524159;66.0;0.0;0.0
11:37:44.287709;476;133552;114836;127783;171976;524159;524159;66.0;0.0;0.0
11:37:44.297942;477;133564;114837;127784;171909;524159;524159;66.0;0.0;0.0
11:37:44.297942;478;133409;114803;127760;171650;524159;524159;66.0;0.0;0.0
11:37:44.427915;479;133180;114758;127739;171288;524159;524159;66.0;0.0;0.0
11:37:44.437749;480;133044;114750;127737;171041;524159;524159;66.0;0.0;0.0
11:37:44.447737;481;133074;114773;127747;170991;524159;524159;66.0;0.0;0.0
11:37:44.447737;482;133228;114809;127784;171110;524159;524159;66.0;0.0;0.0
11:37:44.463066;483;133448;114869;127808;171315;524159;524159;66.0;0.0;0.0
11:37:44.627631;484;133689;114898;127840;171572;524159;524159;66.0;942.6;0.0
11:37:44.637768;485;133918;114927;127862;171827;524159;524159;66.0;0.0;0.0
11:37:44.647608;486;134112;114952;127874;172053;524159;524159;66.0;0.0;0.0
11:37:44.658022;487;134293;114979;127888;172286;524159;524159;66.0;0.0;0.0
11:37:44.663261;488;134500;115009;127917;172543;524159;524159;66.0;0.0;0.0
11:37:44.827686;489;134727;115049;127950;172847;524159;524159;66.0;0.0;0.0
11:37:44.837732;490;134978;115104;127981;173198;524159;524159;66.0;0.0;0.0
11:37:44.852751;491;135272;115151;128013;173584;524159;524159;66.0;0.0;0.0
11:37:44.857776;492;135591;115201;128052;173996;524159;524159;66.0;0.0;0.0
11:37:44.863126;493;135560;115121;127982;174012;524159;524159;66.0;0.0;0.0
11:37:45.027678;494;134592;114844;127797;172859;524159;524159;66.0;0.0;0.0
11:37:45.037810;495;133261;114614;127649;171134;524159;524159;66.0;0.0;0.0
11:37:45.047564;496;132261;114513;127598;169720;524159;524159;65.0;0.0;0.0
11:37:45.047564;497;131680;114476;127563;168785;524159;524159;65.0;0.0;0.0
11:37:45.063164;498;131433;114467;127577;168270;524159;524159;65.0;0.0;0.0
11:37:45.227849;499;131401;114476;127579;168065;524159;524159;65.0;0.0;0.0
11:37:45.237546;500;131316;114461;127571;167840;524159;524159;65.0;0.0;0.0
11:37:45.247641;501;131077;114405;127534;167462;524159;524159;65.0;0.0;0.0
11:37:45.247641;502;130807;114368;127508;167058;524159;524159;65.0;0.0;0.0
11:37:45.263131;503;130692;114364;127506;166840;524159;524159;65.0;0.0;0.0
11:37:45.428013;504;130736;114386;127531;166804;524159;524159;65.0;0.0;0.0
11:37:45.452617;505;130904;114414;127549;166936;524159;524159;65.0;0.0;0.0
11:37:45.457644;506;131115;114453;127566;167124;524159;524159;65.0;0.0;0.0
11:37:45.457644;507;131344;114480;127594;167355;524159;524159;65.0;904.0;0.0
11:37:45.463210;508;131542;114504;127609;167577;524159;524159;65.0;0.0;0.0
11:37:45.627818;509;131729;114523;127620;167813;524159;524159;65.0;0.0;0.0
11:37:45.647631;510;131918;114536;127634;168053;524159;524159;65.0;0.0;0.0
11:37:45.663177;511;132138;114583;127661;168320;524159;524159;65.0;0.0;0.0
11:37:45.667719;512;132390;114619;127688;168638;524159;524159;65.0;0.0;0.0
11:37:45.667719;513;132679;114669;127729;168998;524159;524159;65.0;0.0;0.0
11:37:45.827576;514;132993;114718;127762;169399;524159;524159;65.0;0.0;0.0
11:37:45.843593;515;133323;114779;127800;169835;524159;524159;65.0;0.0;0.0
11:37:45.847629;516;133453;114747;127774;170055;524159;524159;65.0;0.0;0.0
11:37:45.857738;517;132735;114504;127603;169198;524159;524159;65.0;0.0;0.0
11:37:45.863258;518;131493;114258;127444;167582;524159;524159;65.0;0.0;0.0
11:37:46.037562;519;130476;114147;127377;166153;524159;524159;65.0;0.0;0.0
11:37:46.047756;520;129913;114092;127348;165252;524159;524159;65.0;0.0;0.0
11:37:46.057554;521;129675;114101;127347;164773;524159;524159;65.0;0.0;0.0
11:37:46.057554;522;129683;114117;127366;164654;524159;524159;65.0;0.0;0.0
11:37:46.063255;523;129679;114094;127352;164560;524159;524159;65.0;0.0;0.0
11:37:46.237897;524;129510;114056;127333;164315;524159;524159;65.0;0.0;0.0
11:37:46.237897;525;129293;114008;127308;164014;524159;524159;65.0;0.0;0.0
11:37:46.248000;526;129200;114003;127300;163876;524159;524159;65.0;0.0;0.0
11:37:46.257857;527;129280;114023;127327;163944;524159;524159;65.0;0.0;0.0
11:37:46.263304;528;129473;114064;127355;164171;524159;524159;65.0;0.0;0.0
11:37:46.447547;529;129702;114105;127378;164477;524159;524159;65.0;885.9;0.0
11:37:46.458005;530;129963;114146;127406;164809;524159;524159;65.0;0.0;0.0
11:37:46.467700;531;130203;114169;127430;165135;524159;524159;64.0;0.0;0.0
11:37:46.467700;532;130407;114205;127444;165419;524159;524159;64.0;0.0;0.0
11:37:46.477576;533;130613;114234;127476;165711;524159;524159;64.0;0.0;0.0
11:37:46.637951;534;130847;114264;127495;166056;524159;524159;64.0;0.0;0.0
11:37:46.648020;535;131108;114310;127525;166426;524159;524159;64.0;0.0;0.0
11:37:46.648020;536;131418;114355;127566;166871;524159;524159;64.0;0.0;0.0
11:37:46.658098;537;131741;114419;127602;167352;524159;524159;64.0;0.0;0.0
11:37:46.667797;538;132067;114483;127651;167845;524159;524159;64.0;0.0;0.0
11:37:46.837722;539;132408;114536;127686;168351;524159;524159;64.0;0.0;0.0
11:37:46.837722;540;132774;114592;127730;168886;524159;524159;64.0;0.0;0.0
11:37:46.847996;541;132932;114564;127695;169185;524159;524159;64.0;0.0;0.0
11:37:46.857602;542;132277;114328;127532;168420;524159;524159;64.0;0.0;0.0
11:37:46.863622;543;131152;114102;127385;166949;524159;524159;64.0;0.0;0.0
11:37:47.037723;544;130287;114001;127333;165767;524159;524159;64.0;0.0;0.0
11:37:47.042730;545;129859;113973;127318;165094;524159;524159;64.0;0.0;0.0
11:37:47.047770;546;129755;113992;127333;164827;524159;524159;64.0;0.0;0.0
11:37:47.064090;547;129857;114021;127358;164864;524159;524159;64.0;0.0;0.0
11:37:47.067640;548;129908;114022;127358;164888;524159;524159;64.0;0.0;97.0
11:37:47.237727;549;129813;113978;127330;164749;524159;524159;64.0;0.0;97.0
11:37:47.247791;550;129686;113954;127314;164568;524159;524159;64.0;0.0;97.0
11:37:47.257666;551;129671;113955;127321;164525;524159;524159;64.0;0.0;97.0
11:37:47.264190;552;129794;113988;127347;164669;524159;524159;64.0;908.9;97.0
11:37:47.267715;553;130022;114042;127376;164962;524159;524159;64.0;0.0;97.0
11:37:47.437733;554;130297;114086;127419;165345;524159;524159;64.0;0.0;97.0
11:37:47.447798;555;130568;114129;127457;165733;524159;524159;64.0;0.0;97.0
11:37:47.447798;556;130824;114170;127481;166122;524159;524159;64.0;0.0;97.0
11:37:47.457930;557;131070;114205;127501;166502;524159;524159;64.0;0.0;97.0
11:37:47.467794;558;131305;114237;127532;166878;524159;524159;64.0;0.0;97.0
11:37:47.637889;559;131568;114285;127559;167272;524159;524159;64.0;0.0;97.0
11:37:47.647962;560;131867;114331;127595;167705;524159;524159;64.0;0.0;97.0
11:37:47.652969;561;132193;114390;127631;168171;524159;524159;64.0;0.0;97.0
11:37:47.663028;562;132543;114454;127687;168678;524159;524159;64.0;0.0;97.0
11:37:47.667596;563;132917;114524;127727;169220;524159;524159;64.0;0.0;97.0
11:37:47.837617;564;133306;114576;127767;169787;524159;524159;64.0;0.0;97.0
11:37:47.847754;565;133586;114601;127770;170235;524159;524159;64.0;0.0;97.0
11:37:47.847754;566;133195;114398;127632;169824;524159;524159;64.0;0.0;97.0
11:37:47.857585;567;132276;114179;127482;168657;524159;524159;64.0;0.0;97.0
11:37:47.867507;568;131551;114081;127425;167670;524159;524159;64.0;0.0;97.0
11:37:48.037594;569;131221;114076;127431;167176;524159;524159;64.0;0.0;97.0
11:37:48.047779;570;131219;114111;127458;167089;524159;524159;64.0;0.0;97.0
11:37:48.047779;571;131433;114168;127493;167284;524159;524159;64.0;0.0;97.0
11:37:48.057692;572;131583;114177;127502;167482;524159;524159;64.0;0.0;97.0
11:37:48.067808;573;131546;114151;127479;167464;524159;524159;64.0;0.0;96.9
11:37:48.237524;574;131468;114130;127468;167382;524159;524159;64.0;0.0;96.9
11:37:48.247585;575;131483;114137;127485;167427;524159;524159;64.0;927.1;96.9
11:37:48.258022;576;131646;114179;127515;167640;524159;524159;64.0;0.0;96.9
11:37:48.267850;577;131912;114235;127551;167981;524159;524159;64.0;0.0;96.9
11:37:48.267850;578;132233;114299;127588;168397;524159;524159;64.0;0.0;96.9
11:37:48.437819;579;132554;114349;127630;168851;524159;524159;64.0;0.0;96.9
11:37:48.447851;580;132867;114392;127667;169304;524159;524159;64.0;0.0;96.9
11:37:48.457655;581;133133;114435;127700;169715;524159;524159;64.0;0.0;96.9
11:37:48.462660;582;133394;114483;127719;170123;524159;524159;64.0;0.0;96.9
11:37:48.467714;583;133678;114523;127759;170549;524159;524159;64.0;0.0;96.9
11:37:48.637991;584;133985;114576;127797;171015;524159;524159;64.0;0.0;96.9
11:37:48.647564;585;134310;114646;127843;171497;524159;524159;64.0;0.0;96.9
11:37:48.652572;586;134670;114719;127891;172021;524159;524159;64.0;0.0;96.9
11:37:48.657618;587;135072;114793;127938;172603;524159;524159;64.0;0.0;96.9
11:37:48.667783;588;135457;114853;127994;173154;524159;524159;64.0;0.0;96.9
11:37:48.837626;589;135497;114774;127928;173317;524159;524159;64.0;0.0;96.9
11:37:48.847746;590;134890;114565;127781;172608;524159;524159;64.0;0.0;96.9
11:37:48.847746;591;134178;114439;127711;171686;524159;524159;64.0;0.0;96.9
11:37:48.857969;592;133781;114418;127713;171138;524159;524159;64.0;0.0;96.9
11:37:48.867793;593;133731;114461;127744;171020;524159;524159;64.0;0.0;96.9
11:37:49.042696;594;133953;114533;127800;171257;524159;524159;64.0;0.0;96.9
11:37:49.047742;595;134186;114579;127832;171551;524159;524159;64.0;0.0;96.9
11:37:49.057774;596;134243;114564;127812;171629;524159;524159;64.0;0.0;96.9
11:37:49.065309;597;134181;114537;127799;171550;524159;524159;64.0;0.0;96.9
11:37:49.067829;598;134167;114544;127819;171510;524159;524159;64.0;0.0;97.0
11:37:49.237862;599;134276;114583;127841;171619;524159;524159;64.0;0.0;97.0
11:37:49.247791;600;134496;114636;127888;171890;524159;524159;64.0;995.1;97.0
11:37:49.262872;601;134796;114711;127934;172249;524159;524159;64.0;0.0;97.0
11:37:49.265417;602;135119;114766;127980;172640;524159;524159;64.0;0.0;97.0
11:37:49.267955;603;135423;114819;128019;173032;524159;524159;64.0;0.0;97.0
11:37:49.437869;604;135701;114858;128057;173383;524159;524159;64.0;0.0;97.0
11:37:49.447756;605;135965;114906;128085;173723;524159;524159;64.0;0.0;97.0
11:37:49.457589;606;136222;114957;128119;174056;524159;524159;64.0;0.0;97.0
11:37:49.468062;607;136528;115009;128162;174422;524159;524159;64.0;0.0;97.0
11:37:49.477523;608;136854;115067;128201;174828;524159;524159;64.0;0.0;97.0
11:37:49.637761;609;137011;115046;128192;175038;524159;524159;64.0;0.0;97.0
11:37:49.647771;610;136487;114856;128052;174394;524159;524159;64.0;0.0;97.0
11:37:49.657821;611;135625;114683;127948;173255;524159;524159;64.0;0.0;97.0
11:37:49.665593;612;134978;114619;127916;172360;524159;524159;64.0;0.0;97.0
11:37:49.667628;613;134710;114624;127928;171918;524159;524159;64.0;0.0;97.0
11:37:49.842879;614;134726;114674;127965;171826;524159;524159;64.0;0.0;97.0
11:37:49.852924;615;134875;114717;128002;171925;524159;524159;64.0;0.0;97.0
11:37:49.865836;616;134900;114702;127985;171910;524159;524159;64.0;0.0;97.0
11:37:49.867857;617;134764;114665;127969;171720;524159;524159;64.0;0.0;97.0
11:37:49.867857;618;134652;114660;127968;171538;524159;524159;64.0;0.0;97.0
11:37:50.037700;619;134675;114676;127984;171524;524159;524159;64.0;0.0;97.0
11:37:50.047783;620;134802;114714;128007;171639;524159;524159;64.0;0.0;97.0
11:37:50.062700;621;135012;114761;128042;171870;524159;524159;64.0;0.0;97.0
11:37:50.072847;622;135259;114811;128073;172172;524159;524159;64.0;0.0;97.0
11:37:50.077881;623;135507;114848;128103;172482;524159;524159;64.0;0.0;97.0
11:37:50.237694;624;135745;114881;128124;172764;524159;524159;64.0;964.5;97.0
11:37:50.247698;625;135965;114915;128142;173054;524159;524159;64.0;0.0;97.0
11:37:50.257773;626;136196;114957;128172;173355;524159;524159;64.0;0.0;97.0
11:37:50.266464;627;136439;114979;128192;173662;524159;524159;64.0;0.0;97.0
11:37:50.267990;628;136342;114884;128118;173551;524159;524159;64.0;0.0;97.0
11:37:50.437695;629;135490;114654;127960;172524;524159;524159;64.0;0.0;97.0
11:37:50.447778;630;134460;114480;127846;171200;524159;524159;64.0;0.0;97.0
11:37:50.466661;631;133747;114417;127815;170224;524159;524159;65.0;0.0;97.0
11:37:50.467690;632;133359;114403;127809;169650;524159;524159;65.0;0.0;97.0
11:37:50.467690;633;133263;114421;127827;169443;524159;524159;65.0;0.0;97.0
11:37:50.637901;634;133289;114438;127838;169390;524159;524159;65.0;0.0;97.0
11:37:50.647778;635;133202;114417;127825;169257;524159;524159;65.0;0.0;97.0
11:37:50.657836;636;133003;114374;127787;168993;524159;524159;65.0;0.0;97.0
11:37:50.668177;637;132829;114352;127781;168781;524159;524159;65.0;0.0;97.0
11:37:50.677581;638;132825;114371;127796;168744;524159;524159;65.0;0.0;97.0
11:37:50.842593;639;132934;114396;127814;168852;524159;524159;65.0;0.0;97.0
11:37:50.852703;640;133129;114437;127835;169086;524159;524159;65.0;0.0;97.0
11:37:50.857736;641;133360;114469;127861;169361;524159;524159;65.0;0.0;97.0
11:37:50.857736;642;133575;114508;127889;169656;524159;524159;65.0;0.0;97.0
11:37:50.867879;643;133756;114530;127897;169929;524159;524159;65.0;0.0;97.0
11:37:51.037685;644;133926;114549;127912;170190;524159;524159;65.0;0.0;97.0
11:37:51.047568;645;134113;114579;127929;170463;524159;524159;65.0;0.0;97.0
11:37:51.058024;646;134353;114618;127964;170782;524159;524159;65.0;0.0;97.0
11:37:51.067056;647;134626;114666;127981;171158;524159;524159;65.0;0.0;97.0
11:37:51.067586;648;134922;114713;128019;171568;524159;524159;65.0;937.5;96.9
11:37:51.237668;649;134874;114621;127946;171565;524159;524159;65.0;0.0;96.9
11:37:51.247766;650;133956;114364;127766;170469;524159;524159;65.0;0.0;96.9
11:37:51.257726;651;132772;114166;127643;168988;524159;524159;65.0;0.0;96.9
11:37:51.267968;652;131894;114078;127589;167842;524159;524159;65.0;0.0;96.9
11:37:51.267968;653;131395;114038;127565;167118;524159;524159;65.0;0.0;96.9
11:37:51.437711;654;131214;114051;127574;166773;524159;524159;65.0;0.0;96.9
11:37:51.457821;655;131199;114057;127579;166675;524159;524159;65.0;0.0;96.9
11:37:51.467902;656;131098;114031;127554;166507;524159;524159;65.0;0.0;96.9
11:37:51.477765;657;130877;113982;127521;166201;524159;524159;65.0;0.0;96.9
11:37:51.477765;658;130683;113953;127508;165951;524159;524159;65.0;0.0;96.9
11:37:51.637884;659;130628;113963;127514;165869;524159;524159;65.0;0.0;96.9
11:37:51.652506;660;130724;113990;127531;165958;524159;524159;65.0;0.0;96.9
11:37:51.657542;661;130897;114015;127552;166160;524159;524159;65.0;0.0;96.9
11:37:51.667965;662;131100;114059;127576;166424;524159;524159;65.0;0.0;96.9
11:37:51.667965;663;131305;114086;127595;166691;524159;524159;65.0;0.0;96.9
11:37:51.837876;664;131480;114106;127605;166934;524159;524159;65.0;0.0;96.9
11:37:51.847993;665;131664;114134;127621;167196;524159;524159;65.0;0.0;96.9
11:37:51.857780;666;131848;114159;127639;167461;524159;524159;65.0;0.0;96.9
11:37:51.867829;667;132075;114198;127663;167777;524159;524159;65.0;0.0;96.9
11:37:51.872836;668;132338;114233;127687;168149;524159;524159;65.0;813.2;96.9
11:37:52.037803;669;132617;114289;127727;168555;524159;524159;65.0;0.0;96.9
11:37:52.057907;670;132933;114342;127765;168997;524159;524159;65.0;0.0;96.9
11:37:52.067971;671;133252;114389;127797;169452;524159;524159;65.0;0.0;96.9
11:37:52.067971;672;133573;114447;127827;169906;524159;524159;65.0;0.0;96.9
11:37:52.077972;673;133874;114485;127849;170334;524159;524159;65.0;0.0;96.7
11:37:52.237621;674;133677;114342;127745;170166;524159;524159;65.0;0.0;96.7
11:37:52.247519;675;132641;114077;127564;168908;524159;524159;65.0;0.0;96.7
11:37:52.257544;676;131514;113901;127454;167458;524159;524159;65.0;0.0;96.7
11:37:52.268087;677;130764;113839;127420;166424;524159;524159;65.0;0.0;96.7
11:37:52.268087;678;130373;113816;127413;165821;524159;524159;65.0;0.0;96.7
11:37:52.437879;679;130294;113836;127428;165589;524159;524159;65.0;0.0;96.7
11:37:52.447507;680;130315;113860;127428;165531;524159;524159;65.0;0.0;96.7
11:37:52.457740;681;130210;113818;127411;165370;524159;524159;65.0;0.0;96.7
11:37:52.467848;682;130006;113781;127378;165084;524159;524159;65.0;0.0;96.7
11:37:52.477906;683;129850;113772;127372;164845;524159;524159;65.0;0.0;96.7
11:37:52.637888;684;129857;113782;127376;164814;524159;524159;65.0;0.0;96.7
11:37:52.647992;685;130003;113814;127408;164955;524159;524159;65.0;0.0;96.7
11:37:52.662560;686;130215;113863;127432;165214;524159;524159;65.0;755.8;96.7
11:37:52.668269;687;130457;113891;127457;165512;524159;524159;65.0;0.0;96.7
11:37:52.677826;688;130698;113935;127475;165797;524159;524159;65.0;0.0;96.7
11:37:52.847974;689;130923;113954;127501;166079;524159;524159;65.0;0.0;96.7
11:37:52.857614;690;131128;113990;127521;166355;524159;524159;65.0;0.0;96.7
11:37:52.868747;691;131350;114021;127540;166653;524159;524159;65.0;0.0;96.7
11:37:52.872751;692;131628;114063;127577;167015;524159;524159;65.0;0.0;96.7
11:37:52.877772;693;131928;114125;127601;167413;524159;524159;65.0;0.0;96.7
11:37:53.037812;694;132262;114171;127649;167863;524159;524159;65.0;0.0;96.7
11:37:53.047821;695;132598;114231;127679;168330;524159;524159;65.0;0.0;96.7
11:37:53.067803;696;132945;114290;127732;168803;524159;524159;65.0;0.0;96.7
11:37:53.072835;697;133315;114345;127755;169302;524159;524159;65.0;0.0;96.7
11:37:53.072835;698;133682;114399;127800;169790;524159;524159;65.0;0.0;96.5
11:37:53.252685;699;133757;114338;127734;169943;524159;524159;65.0;0.0;96.5
11:37:53.257714;700;133026;114091;127570;169071;524159;524159;65.0;0.0;96.5
11:37:53.262720;701;132004;113908;127449;167738;524159;524159;65.0;0.0;96.5
11:37:53.269267;702;131294;113854;127417;166754;524159;524159;65.0;0.0;96.5
11:37:53.269267;703;130985;113838;127425;166240;524159;524159;65.0;0.0;96.5
11:37:53.447862;704;130951;113879;127443;166102;524159;524159;65.0;0.0;96.5
11:37:53.447862;705;131076;113914;127459;166196;524159;524159;65.0;0.0;96.5
11:37:53.462719;706;131107;113903;127459;166212;524159;524159;65.0;0.0;96.5
11:37:53.469280;707;131023;113870;127435;166077;524159;524159;65.0;0.0;96.5
11:37:53.477795;708;130945;113862;127420;165967;524159;524159;65.0;843.0;96.5
11:37:53.647954;709;130996;113887;127445;166011;524159;524159;65.0;0.0;96.5
11:37:53.652961;710;131195;113934;127474;166245;524159;524159;65.0;0.0;96.5
11:37:53.658001;711;131476;113985;127502;166607;524159;524159;65.0;0.0;96.5
11:37:53.669456;712;131773;114038;127548;167005;524159;524159;65.0;0.0;96.5
11:37:53.677747;713;132071;114080;127571;167414;524159;524159;65.0;0.0;96.5
11:37:53.847849;714;132355;114121;127600;167818;524159;524159;65.0;0.0;96.5
11:37:53.852856;715;132618;114153;127629;168192;524159;524159;65.0;0.0;96.5
11:37:53.869518;716;132897;114194;127654;168597;524159;524159;65.0;0.0;96.5
11:37:53.877558;717;133182;114240;127684;168995;524159;524159;65.0;0.0;96.5
11:37:53.882566;718;133519;114299;127723;169453;524159;524159;65.0;0.0;96.5
11:37:54.047785;719;133885;114364;127774;169958;524159;524159;65.0;0.0;96.5
11:37:54.047785;720;134267;114430;127824;170492;524159;524159;65.0;0.0;96.5
11:37:54.062717;721;134671;114501;127861;171054;524159;524159;65.0;0.0;96.5
11:37:54.069765;722;135079;114564;127909;171633;524159;524159;65.0;0.0;96.5
11:37:54.077785;723;135277;114536;127887;171971;524159;524159;65.0;0.0;96.3
11:37:54.247603;724;134789;114334;127740;171430;524159;524159;65.0;0.0;96.3
11:37:54.257802;725;133974;114172;127639;170417;524159;524159;65.0;0.0;96.3
11:37:54.267851;726;133437;114133;127626;169675;524159;524159;65.0;0.0;96.3
11:37:54.269895;727;133285;114161;127639;169384;524159;524159;65.0;0.0;96.3
11:37:54.277944;728;133433;114231;127687;169477;524159;524159;65.0;0.0;96.3
11:37:54.447746;729;133713;114289;127729;169768;524159;524159;65.0;0.0;96.3
11:37:54.469900;730;133875;114297;127732;169967;524159;524159;65.0;0.0;96.3
11:37:54.477936;731;133851;114270;127720;169938;524159;524159;65.0;0.0;96.3
11:37:54.487524;732;133847;114270;127722;169916;524159;524159;65.0;0.0;96.3
11:37:54.487524;733;133943;114299;127747;170010;524159;524159;65.0;990.3;96.3
11:37:54.647862;734;134189;114352;127783;170281;524159;524159;65.0;0.0;96.3
11:37:54.657738;735;134504;114415;127830;170666;524159;524159;65.0;0.0;96.3
11:37:54.670065;736;134855;114481;127880;171093;524159;524159;65.0;0.0;96.3
11:37:54.677598;737;135209;114533;127914;171537;524159;524159;65.0;0.0;96.3
11:37:54.677598;738;135537;114585;127950;171944;524159;524159;65.0;0.0;96.3
11:37:54.847706;739;135842;114628;127975;172337;524159;524159;65.0;0.0;96.3
11:37:54.862772;740;136118;114666;128016;172720;524159;524159;65.0;0.0;96.3
11:37:54.870344;741;136416;114733;128057;173132;524159;524159;65.0;0.0;96.3
11:37:54.877894;742;136749;114796;128103;173584;524159;524159;65.0;0.0;96.3
11:37:54.877894;743;137121;114872;128167;174085;524159;524159;65.0;0.0;96.3
11:37:55.047940;744;137503;114939;128211;174603;524159;524159;65.0;0.0;96.3
11:37:55.057749;745;137644;114897;128178;174856;524159;524159;65.0;0.0;96.3
11:37:55.062757;746;137114;114702;128037;174242;524159;524159;66.0;0.0;96.3
11:37:55.070333;747;136348;114563;127966;173276;524159;524159;66.0;0.0;96.3
11:37:55.077877;748;135854;114536;127942;172609;524159;524159;66.0;0.0;96.1
11:37:55.247470;749;135713;114571;127980;172344;524159;524159;66.0;0.0;96.1
11:37:55.247470;750;135870;114643;128033;172465;524159;524159;66.0;0.0;96.1
11:37:55.257952;751;136123;114698;128079;172729;524159;524159;66.0;0.0;96.1
11:37:55.270236;752;136222;114698;128074;172828;524159;524159;66.0;0.0;96.1
11:37:55.277767;753;136186;114674;128070;172755;524159;524159;66.0;0.0;96.1
11:37:55.447640;754;136168;114678;128076;172728;524159;524159;66.0;0.0;96.1
11:37:55.457704;755;136262;114716;128097;172836;524159;524159;66.0;0.0;96.1
11:37:55.457704;756;136487;114766;128142;173086;524159;524159;66.0;0.0;96.1
11:37:55.470076;757;136784;114826;128190;173442;524159;524159;66.0;0.0;96.1
11:37:55.477639;758;137108;114893;128229;173845;524159;524159;66.0;1008.6;96.1
11:37:55.652450;759;137411;114935;128260;174254;524159;524159;66.0;0.0;96.1
11:37:55.662508;760;137686;114972;128293;174623;524159;524159;66.0;0.0;96.1
11:37:55.670092;761;137937;115020;128319;174981;524159;524159;66.0;0.0;96.1
11:37:55.677633;762;138194;115062;128350;175347;524159;524159;66.0;0.0;96.1
11:37:55.687469;763;138479;115117;128398;175747;524159;524159;66.0;0.0;96.1
11:37:55.847859;764;138793;115170;128437;176184;524159;524159;66.0;0.0;96.1
11:37:55.857725;765;138877;115121;128385;176352;524159;524159;66.0;0.0;96.1
11:37:55.867614;766;138234;114908;128246;175600;524159;524159;66.0;0.0;96.1
11:37:55.870135;767;137290;114747;128141;174409;524159;524159;66.0;0.0;96.1
11:37:55.877662;768;136608;114697;128117;173485;524159;524159;66.0;0.0;96.1
11:37:56.047680;769;136291;114707;128138;172985;524159;524159;66.0;0.0;96.1
11:37:56.057696;770;136259;114747;128168;172863;524159;524159;66.0;0.0;96.1
11:37:56.070291;771;136371;114789;128203;172946;524159;524159;67.0;0.0;96.1
11:37:56.077852;772;136365;114784;128198;172929;524159;524159;67.0;0.0;96.1
11:37:56.077852;773;136225;114748;128173;172730;524159;524159;67.0;0.0;96.0
11:37:56.247578;774;136082;114747;128165;172559;524159;524159;67.0;0.0;96.0
11:37:56.257597;775;136066;114772;128196;172542;524159;524159;67.0;0.0;96.0
11:37:56.257597;776;136185;114808;128219;172690;524159;524159;67.0;0.0;96.0
11:37:56.271160;777;136386;114861;128256;172959;524159;524159;67.0;0.0;96.0
11:37:56.277676;778;136623;114909;128290;173264;524159;524159;67.0;0.0;96.0
11:37:56.447493;779;136868;114944;128326;173604;524159;524159;67.0;0.0;96.0
11:37:56.457567;780;137102;114983;128343;173911;524159;524159;67.0;0.0;96.0
11:37:56.457567;781;137314;115006;128360;174194;524159;524159;67.0;0.0;96.0
11:37:56.471072;782;137537;115045;128391;174496;524159;524159;67.0;961.1;96.0
11:37:56.477591;783;137776;115091;128419;174836;524159;524159;67.0;0.0;96.0
11:37:56.647511;784;138045;115138;128454;175212;524159;524159;67.0;0.0;96.0
11:37:56.657545;785;138339;115196;128491;175623;524159;524159;67.0;0.0;96.0
11:37:56.671364;786;138641;115252;128531;176046;524159;524159;67.0;0.0;96.0
11:37:56.677915;787;138776;115208;128494;176271;524159;524159;67.0;0.0;96.0
11:37:56.677915;788;138046;114970;128316;175426;524159;524159;67.0;0.0;96.0
11:37:56.847782;789;136788;114738;128163;173883;524159;524159;67.0;0.0;96.0
11:37:56.857823;790;135745;114625;128114;172554;524159;524159;67.0;0.0;96.0
11:37:56.871937;791;135075;114588;128091;171665;524159;524159;67.0;0.0;96.0
11:37:56.877479;792;134718;114589;128092;171139;524159;524159;67.0;0.0;96.0
11:37:56.887549;793;134611;114595;128101;170923;524159;524159;67.0;0.0;96.0
11:37:57.047603;794;134510;114587;128093;170759;524159;524159;67.0;0.0;96.0
11:37:57.057588;795;134297;114541;128067;170448;524159;524159;67.0;0.0;96.0
11:37:57.067743;796;134041;114506;128044;170104;524159;524159;67.0;0.0;96.0
11:37:57.072264;797;133894;114510;128042;169879;524159;524159;67.0;0.0;96.0
11:37:57.077812;798;133899;114531;128058;169853;524159;524159;67.0;0.0;95.9
11:37:57.247673;799;134019;114564;128087;169977;524159;524159;67.0;0.0;95.9
11:37:57.267702;800;134212;114597;128110;170198;524159;524159;67.0;0.0;95.9
11:37:57.272243;801;134393;114628;128131;170434;524159;524159;67.0;0.0;95.9
11:37:57.272243;802;134564;114650;128141;170661;524159;524159;67.0;0.0;95.9
11:37:57.277766;803;134715;114665;128154;170894;524159;524159;67.0;874.7;95.9
11:37:57.447835;804;134873;114694;128169;171141;524159;524159;67.0;0.0;95.9
11:37:57.457508;805;135056;114723;128180;171427;524159;524159;67.0;0.0;95.9
11:37:57.468811;806;135303;114760;128207;171780;524159;524159;67.0;0.0;95.9
11:37:57.472522;807;135548;114799;128241;172141;524159;524159;67.0;0.0;95.9
11:37:57.477535;808;135819;114859;128275;172555;524159;524159;67.0;0.0;95.9
11:37:57.657804;809;136112;114893;128300;172986;524159;524159;67.0;0.0;95.9
11:37:57.667530;810;136403;114946;128333;173423;524159;524159;67.0;0.0;95.9
11:37:57.672823;811;136709;114992;128371;173875;524159;524159;67.0;0.0;95.9
11:37:57.677860;812;137038;115041;128402;174347;524159;524159;67.0;0.0;95.9
11:37:57.677860;813;137246;115041;128386;174675;524159;524159;67.0;0.0;95.9
11:37:57.847622;814;136654;114802;128209;174024;524159;524159;67.0;0.0;95.9
11:37:57.862751;815;135374;114532;128034;172464;524159;524159;67.0;0.0;95.9
11:37:57.867804;816;134219;114394;127963;170985;524159;524159;67.0;0.0;95.9
11:37:57.872946;817;133483;114344;127937;169994;524159;524159;67.0;0.0;95.9
11:37:57.877469;818;133082;114325;127924;169393;524159;524159;67.0;0.0;95.9
11:37:58.047771;819;132978;114344;127930;169161;524159;524159;67.0;0.0;95.9
11:37:58.057715;820;132924;114344;127941;169030;524159;524159;67.0;0.0;95.9
11:37:58.067877;821;132749;114301;127900;168775;524159;524159;67.0;0.0;95.9
11:37:58.077782;822;132486;114258;127870;168431;524159;524159;67.0;0.0;95.9
11:37:58.077782;823;132320;114239;127867;168224;524159;524159;67.0;0.0;95.8
11:37:58.257887;824;132328;114273;127882;168219;524159;524159;67.0;804.8;95.8
11:37:58.267702;825;132468;114307;127906;168363;524159;524159;67.0;0.0;95.8
11:37:58.277827;826;132671;114346;127946;168617;524159;524159;67.0;0.0;95.8
11:37:58.277827;827;132880;114378;127967;168878;524159;524159;67.0;0.0;95.8
11:37:58.287480;828;133082;114411;127982;169156;524159;524159;67.0;0.0;95.8
11:37:58.447601;829;133258;114433;128005;169415;524159;524159;67.0;0.0;95.8
11:37:58.462813;830;133445;114474;128021;169677;524159;524159;67.0;0.0;95.8
11:37:58.473374;831;133663;114506;128049;169967;524159;524159;67.0;0.0;95.8
11:37:58.477914;832;133917;114558;128087;170301;524159;524159;67.0;0.0;95.8
11:37:58.482418;833;134212;114610;128133;170687;524159;524159;67.0;0.0;95.8
11:37:58.647725;834;134523;114688;128182;171093;524159;524159;67.0;0.0;95.8
11:37:58.657529;835;134864;114740;128227;171551;524159;524159;67.0;0.0;95.8
11:37:58.667743;836;135176;114795;128270;171989;524159;524159;67.0;0.0;95.8
11:37:58.673760;837;135011;114673;128166;171858;524159;524159;67.0;0.0;95.8
11:37:58.677778;838;134104;114439;128015;170720;524159;524159;67.0;0.0;95.8
11:37:58.847742;839;133113;114301;127934;169399;524159;524159;67.0;0.0;95.8
11:37:58.862604;840;132516;114278;127929;168534;524159;524159;67.0;0.0;95.8
11:37:58.873697;841;132309;114299;127956;168136;524159;524159;67.0;0.0;95.8
11:37:58.877737;842;132403;114355;127993;168120;524159;524159;67.0;0.0;95.8
11:37:58.887562;843;132534;114375;128017;168187;524159;524159;67.0;0.0;95.8
11:37:59.047588;844;132499;114350;127995;168108;524159;524159;67.0;0.0;95.8
11:37:59.057536;845;132358;114317;127975;167871;524159;524159;67.0;0.0;95.8
11:37:59.074025;846;132313;114323;127978;167750;524159;524159;67.0;891.8;95.8
11:37:59.077545;847;132410;114355;128011;167814;524159;524159;67.0;0.0;95.8
11:37:59.087650;848;132615;114408;128051;168025;524159;524159;67.0;0.0;95.7
11:37:59.257566;849;132888;114461;128088;168348;524159;524159;67.0;0.0;95.7
11:37:59.267879;850;133191;114508;128123;168717;524159;524159;67.0;0.0;95.7
11:37:59.272888;851;133482;114555;128148;169089;524159;524159;67.0;0.0;95.7
11:37:59.277457;852;133740;114592;128185;169448;524159;524159;67.0;0.0;95.7
11:37:59.277457;853;134002;114627;128209;169810;524159;524159;67.0;0.0;95.7
11:37:59.447957;854;134260;114672;128241;170165;524159;524159;67.0;0.0;95.7
11:37:59.457780;855;134554;114717;128276;170568;524159;524159;67.0;0.0;95.7
11:37:59.467545;856;134882;114772;128309;171018;524159;524159;67.0;0.0;95.7
11:37:59.477619;857;135225;114840;128366;171481;524159;524159;67.0;0.0;95.7
11:37:59.477619;858;135581;114900;128401;171968;524159;524159;67.0;0.0;95.7
11:37:59.647849;859;135961;114960;128447;172492;524159;524159;67.0;0.0;95.7
11:37:59.667839;860;136262;114973;128460;172914;524159;524159;67.0;0.0;95.7
11:37:59.677551;861;135885;114781;128311;172520;524159;524159;66.0;0.0;95.7
11:37:59.677551;862;134782;114523;128136;171123;524159;524159;66.0;0.0;95.7
11:37:59.677551;863;133749;114387;128048;169725;524159;524159;66.0;0.0;95.7
11:37:59.847754;864;133149;114351;128040;168836;524159;524159;66.0;0.0;95.7
11:37:59.857578;865;132889;114355;128042;168366;524159;524159;66.0;0.0;95.7
11:37:59.874856;866;132894;114388;128063;168269;524159;524159;66.0;0.0;95.7
11:37:59.877901;867;132963;114404;128077;168278;524159;524159;66.0;0.0;95.7
11:37:59.887491;868;132900;114372;128066;168161;524159;524159;66.0;0.0;95.7
11:38:00.057919;869;132742;114339;128037;167934;524159;524159;66.0;0.0;95.7
11:38:00.057919;870;132678;114341;128040;167809;524159;524159;66.0;0.0;95.7
11:38:00.067466;871;132756;114363;128058;167890;524159;524159;66.0;0.0;95.7
11:38:00.077481;872;132962;114420;128095;168129;524159;524159;66.0;1045.7;95.7
11:38:00.087470;873;133225;114460;128135;168455;524159;524159;66.0;0.0;95.7
11:38:00.087470;874;133518;114510;128162;168812;524159;524159;66.0;0.0;95.7
11:38:00.467727;875;133791;114553;128196;169172;524159;524159;66.0;0.0;95.7
11:38:00.482823;876;134044;114584;128214;169529;524159;524159;66.0;0.0;95.7
11:38:00.482823;877;134295;114621;128235;169881;524159;524159;66.0;0.0;95.7
11:38:00.487917;878;134559;114658;128269;170243;524159;524159;66.0;0.0;95.7
11:38:00.487917;879;134844;114705;128300;170645;524159;524159;66.0;0.0;95.7
11:38:00.497891;880;135165;114771;128344;171098;524159;524159;66.0;0.0;95.7
11:38:00.507912;881;135511;114823;128383;171589;524159;524159;66.0;0.0;95.7
11:38:00.507912;882;135868;114886;128419;172093;524159;524159;66.0;0.0;95.7
11:38:00.517705;883;136240;114948;128468;172617;524159;524159;66.0;0.0;95.7
11:38:00.527491;884;136603;115012;128509;173145;524159;524159;66.0;0.0;95.7
11:38:00.857792;885;136987;115065;128553;173690;524159;524159;66.0;0.0;95.7
11:38:00.867784;886;137355;115128;128586;174206;524159;524159;66.0;0.0;95.7
11:38:00.877591;887;137275;115003;128490;174220;524159;524159;66.0;0.0;95.7
11:38:00.882594;888;136410;114732;128304;173155;524159;524159;66.0;0.0;95.7
11:38:00.892630;889;135390;114565;128198;171820;524159;524159;66.0;0.0;95.7
11:38:00.897658;890;134753;114514;128175;170916;524159;524159;66.0;0.0;95.7
11:38:00.907651;891;134511;114523;128189;170471;524159;524159;66.0;0.0;95.7
11:38:00.907651;892;134501;114566;128221;170356;524159;524159;66.0;0.0;95.7
11:38:00.917841;893;134628;114598;128240;170456;524159;524159;66.0;0.0;95.7
11:38:00.927918;894;134640;114590;128236;170448;524159;524159;66.0;0.0;95.7
11:38:01.257956;895;134535;114554;128207;170308;524159;524159;66.0;0.0;95.7
11:38:01.272792;896;134455;114557;128207;170224;524159;524159;66.0;930.9;95.7
11:38:01.277879;897;134502;114582;128229;170282;524159;524159;66.0;0.0;95.7
11:38:01.287724;898;134692;114628;128267;170508;524159;524159;66.0;0.0;95.6
11:38:01.297466;899;134963;114690;128304;170840;524159;524159;66.0;0.0;95.6
11:38:01.297466;900;135258;114740;128340;171244;524159;524159;66.0;0.0;95.6
11:38:01.307464;901;135563;114791;128381;171672;524159;524159;66.0;0.0;95.6
11:38:01.317914;902;135835;114830;128406;172067;524159;524159;66.0;0.0;95.6
11:38:01.317914;903;136098;114869;128430;172460;524159;524159;66.0;0.0;95.6
11:38:01.327477;904;136370;114914;128460;172872;524159;524159;66.0;0.0;95.6
11:38:01.657673;905;136659;114961;128497;173288;524159;524159;66.0;0.0;95.6
11:38:01.667571;906;136988;115023;128538;173753;524159;524159;66.0;0.0;95.6
11:38:01.677645;907;137325;115082;128587;174247;524159;524159;66.0;0.0;95.6
11:38:01.677645;908;137687;115152;128633;174776;524159;524159;66.0;0.0;95.6
11:38:01.687626;909;138061;115217;128690;175316;524159;524159;66.0;0.0;95.6
11:38:01.697785;910;138437;115287;128732;175873;524159;524159;66.0;0.0;95.6
11:38:01.707889;911;138830;115356;128778;176419;524159;524159;66.0;0.0;95.6
11:38:01.707889;912;139083;115352;128764;176833;524159;524159;66.0;0.0;95.6
11:38:01.717507;913;138637;115126;128606;176374;524159;524159;66.0;0.0;95.6
11:38:01.727904;914;137713;114915;128453;175251;524159;524159;66.0;0.0;95.6
11:38:02.057450;915;137008;114830;128417;174326;524159;524159;66.0;0.0;95.6
11:38:02.076852;916;136688;114837;128431;173864;524159;524159;66.0;0.0;95.6
11:38:02.077873;917;136649;114878;128456;173771;524159;524159;66.0;0.0;95.6
11:38:02.087438;918;136825;114934;128495;173957;524159;524159;66.0;0.0;95.6
11:38:02.087438;919;136965;114964;128516;174153;524159;524159;66.0;950.7;95.6
11:38:02.097594;920;136942;114937;128499;174165;524159;524159;66.0;0.0;95.6
11:38:02.107536;921;136848;114918;128488;174081;524159;524159;66.0;0.0;95.6
11:38:02.117434;922;136856;114932;128499;174104;524159;524159;66.0;0.0;95.6
11:38:02.117434;923;137011;114982;128534;174303;524159;524159;66.0;0.0;95.6
11:38:02.127520;924;137246;115031;128571;174634;524159;524159;66.0;0.0;95.6
11:38:02.257810;925;137544;115099;128621;175039;524159;524159;66.0;0.0;95.6
11:38:02.267655;926;137866;115147;128657;175480;524159;524159;66.0;0.0;95.6
11:38:02.272662;927;138170;115206;128697;175905;524159;524159;66.0;0.0;95.6
11:38:02.277716;928;138467;115247;128720;176322;524159;524159;66.0;0.0;95.6
11:38:02.287709;929;138741;115286;128750;176722;524159;524159;66.0;0.0;95.6
11:38:02.457532;930;139012;115335;128789;177128;524159;524159;66.0;0.0;95.6
11:38:02.467755;931;139338;115391;128828;177559;524159;524159;66.0;0.0;95.6
11:38:02.472763;932;139676;115459;128878;178017;524159;524159;66.0;0.0;95.6
11:38:02.487729;933;140040;115531;128927;178536;524159;524159;66.0;0.0;95.6
11:38:02.497746;934;140415;115595;128980;179077;524159;524159;66.0;0.0;95.6
11:38:02.657698;935;140580;115567;128943;179384;524159;524159;66.0;0.0;95.6
11:38:02.667840;936;140116;115368;128805;178886;524159;524159;66.0;0.0;95.6
11:38:02.667840;937;139387;115232;128714;177993;524159;524159;66.0;0.0;95.6
11:38:02.677682;938;138919;115198;128705;177395;524159;524159;66.0;0.0;95.6
11:38:02.687852;939;138809;115242;128738;177223;524159;524159;66.0;0.0;95.6
11:38:02.857452;940;139009;115307;128784;177431;524159;524159;66.0;0.0;95.6
11:38:02.872747;941;139305;115368;128821;177771;524159;524159;66.0;0.0;95.6
11:38:02.877794;942;139456;115368;128808;177965;524159;524159;66.0;0.0;95.6
11:38:02.887797;943;139448;115336;128784;177952;524159;524159;66.0;0.0;95.6
11:38:02.887797;944;139425;115336;128785;177920;524159;524159;66.0;0.0;95.6
11:38:03.057535;945;139544;115369;128806;178037;524159;524159;66.0;0.0;95.6
11:38:03.072645;946;139766;115433;128863;178278;524159;524159;66.0;1051.1;95.6
11:38:03.077702;947;140051;115501;128924;178620;524159;524159;66.0;0.0;95.6
11:38:03.082707;948;140364;115571;128978;179008;524159;524159;66.0;0.0;95.6
11:38:03.087746;949;140688;115642;129026;179418;524159;524159;66.0;0.0;95.6
11:38:03.257779;950;140998;115696;129067;179822;524159;524159;66.0;0.0;95.6
11:38:03.267733;951;141255;115734;129105;180190;524159;524159;66.0;0.0;95.6
11:38:03.278067;952;141515;115788;129146;180554;524159;524159;66.0;0.0;95.6
11:38:03.278067;953;141802;115847;129179;180935;524159;524159;66.0;0.0;95.6
11:38:03.287560;954;142106;115904;129234;181325;524159;524159;66.0;0.0;95.6
11:38:03.457419;955;142442;115977;129284;181767;524159;524159;66.0;0.0;95.6
11:38:03.467680;956;142725;116018;129317;182162;524159;524159;66.0;0.0;95.6
11:38:03.478509;957;142467;115861;129199;181916;524159;524159;66.0;0.0;95.6
11:38:03.487440;958;141613;115650;129059;180877;524159;524159;66.0;0.0;95.6
11:38:03.487440;959;140788;115553;129004;179824;524159;524159;66.0;0.0;95.6
11:38:03.657642;960;140357;115550;129015;179208;524159;524159;66.0;0.0;95.6
11:38:03.667664;961;140266;115596;129052;178993;524159;524159;66.0;0.0;95.6
11:38:03.679067;962;140420;115667;129098;179074;524159;524159;66.0;0.0;95.6
11:38:03.687613;963;140542;115688;129114;179173;524159;524159;66.0;0.0;95.6
11:38:03.697638;964;140467;115661;129096;179068;524159;524159;66.0;0.0;95.6
11:38:03.857686;965;140303;115637;129078;178845;524159;524159;66.0;0.0;95.6
11:38:03.867736;966;140216;115633;129094;178707;524159;524159;66.0;0.0;95.6
11:38:03.878906;967;140277;115662;129121;178738;524159;524159;66.0;0.0;95.6
11:38:03.878906;968;140444;115715;129148;178910;524159;524159;66.0;0.0;95.6
11:38:03.887432;969;140668;115773;129195;179153;524159;524159;66.0;0.0;95.6
11:38:04.057538;970;140934;115825;129227;179473;524159;524159;66.0;0.0;95.6
11:38:04.067686;971;141175;115866;129257;179772;524159;524159;65.0;1017.5;95.6
11:38:04.079271;972;141395;115895;129280;180056;524159;524159;65.0;0.0;95.6
11:38:04.079271;973;141598;115925;129302;180333;524159;524159;65.0;0.0;95.5
11:38:04.087827;974;141805;115957;129325;180601;524159;524159;65.0;0.0;95.5
11:38:04.257508;975;142027;116003;129364;180898;524159;524159;65.0;0.0;95.5
11:38:04.267634;976;142289;116060;129393;181250;524159;524159;65.0;0.0;95.5
11:38:04.279512;977;142592;116110;129432;181650;524159;524159;65.0;0.0;95.5
11:38:04.287563;978;142709;116080;129408;181841;524159;524159;65.0;0.0;95.5
11:38:04.297689;979;142001;115821;129215;181026;524159;524159;65.0;0.0;95.5
11:38:04.457846;980;140745;115581;129050;179505;524159;524159;65.0;0.0;95.5
11:38:04.467566;981;139685;115469;128980;178163;524159;524159;65.0;0.0;95.5
11:38:04.479719;982;139047;115429;128955;177258;524159;524159;65.0;0.0;95.5
11:38:04.479719;983;138743;115440;128956;176761;524159;524159;65.0;0.0;95.5
11:38:04.487768;984;138681;115455;128977;176582;524159;524159;65.0;0.0;95.5
11:38:04.657466;985;138622;115452;128965;176424;524159;524159;65.0;0.0;95.5
11:38:04.667726;986;138397;115400;128924;176100;524159;524159;65.0;0.0;95.5
11:38:04.679690;987;138136;115369;128906;175716;524159;524159;65.0;0.0;95.5
11:38:04.687748;988;137949;115376;128920;175448;524159;524159;65.0;0.0;95.5
11:38:04.687748;989;137922;115405;128948;175374;524159;524159;65.0;0.0;95.5
11:38:04.857724;990;138031;115442;128967;175464;524159;524159;65.0;0.0;95.5
11:38:04.867489;991;138222;115481;128991;175642;524159;524159;65.0;0.0;95.5
11:38:04.877680;992;138431;115500;129009;175861;524159;524159;65.0;0.0;95.5
11:38:04.880208;993;138638;115520;129016;176079;524159;524159;65.0;0.0;95.5
11:38:04.887751;994;138826;115538;129020;176295;524159;524159;65.0;908.2;95.5
11:38:05.062697;995;139015;115552;129030;176507;524159;524159;65.0;0.0;95.5
11:38:05.067766;996;139205;115587;129051;176749;524159;524159;65.0;0.0;95.5
11:38:05.080850;997;139442;115622;129060;177044;524159;524159;65.0;0.0;95.5
11:38:05.080850;998;139714;115665;129098;177393;524159;524159;65.0;0.0;95.5
11:38:05.087367;999;139998;115714;129133;177767;524159;524159;65.0;0.0;95.5
11:38:05.257596;1000;140284;115777;129174;178164;524159;524159;65.0;0.0;95.5
11:38:05.267707;1001;140594;115817;129212;178581;524159;524159;65.0;0.0;95.5
11:38:05.277380;1002;140905;115874;129238;179013;524159;524159;65.0;0.0;95.5
11:38:05.287430;1003;140901;115795;129167;179091;524159;524159;65.0;0.0;95.5
11:38:05.287430;1004;139925;115523;128994;177976;524159;524159;65.0;0.0;95.5
11:38:05.457672;1005;138542;115311;128868;176276;524159;524159;65.0;0.0;95.5
11:38:05.467451;1006;137491;115220;128826;174890;524159;524159;64.0;0.0;95.5
11:38:05.477623;1007;136880;115199;128827;174004;524159;524159;64.0;0.0;95.5
11:38:05.487728;1008;136606;115202;128835;173534;524159;524159;64.0;0.0;95.5
11:38:05.492735;1009;136556;115224;128849;173352;524159;524159;64.0;0.0;95.5
11:38:05.657835;1010;136462;115211;128838;173163;524159;524159;64.0;0.0;95.5
11:38:05.667716;1011;136223;115163;128802;172811;524159;524159;64.0;0.0;95.5
11:38:05.681019;1012;135963;115115;128780;172422;524159;524159;64.0;0.0;95.5
11:38:05.687551;1013;135823;115120;128776;172196;524159;524159;64.0;0.0;95.5
11:38:05.697575;1014;135855;115142;128795;172171;524159;524159;64.0;0.0;95.5
11:38:05.857553;1015;136002;115179;128821;172298;524159;524159;64.0;859.1;95.5
11:38:05.867377;1016;136196;115216;128845;172494;524159;524159;64.0;0.0;95.5
11:38:05.881204;1017;136417;115242;128874;172750;524159;524159;64.0;0.0;95.5
11:38:05.887756;1018;136623;115268;128895;172996;524159;524159;64.0;0.0;95.5
11:38:05.887756;1019;136800;115289;128906;173241;524159;524159;64.0;0.0;95.5
11:38:06.062852;1020;136997;115318;128922;173500;524159;524159;64.0;0.0;95.5
11:38:06.067402;1021;137215;115354;128941;173794;524159;524159;64.0;0.0;95.5
11:38:06.081169;1022;137458;115397;128974;174122;524159;524159;64.0;0.0;95.5
11:38:06.087705;1023;137735;115449;129009;174490;524159;524159;64.0;0.0;95.5
11:38:06.097821;1024;138050;115500;129043;174896;524159;524159;64.0;0.0;95.5
11:38:06.257414;1025;138350;115554;129085;175311;524159;524159;64.0;0.0;95.5
11:38:06.267635;1026;138690;115615;129129;175759;524159;524159;64.0;0.0;95.5
11:38:06.277390;1027;139024;115661;129157;176218;524159;524159;64.0;0.0;95.5
11:38:06.287425;1028;139083;115601;129111;176369;524159;524159;64.0;0.0;95.5
11:38:06.287425;1029;138244;115327;128914;175400;524159;524159;64.0;0.0;95.5
11:38:06.457895;1030;137024;115101;128768;173864;524159;524159;64.0;0.0;95.5
11:38:06.467433;1031;136139;115012;128717;172637;524159;524159;63.0;0.0;95.5
11:38:06.477521;1032;135692;114998;128716;171910;524159;524159;63.0;0.0;95.5
11:38:06.487568;1033;135547;115011;128724;171596;524159;524159;63.0;0.0;95.5
11:38:06.487568;1034;135599;115046;128747;171557;524159;524159;63.0;0.0;95.5
11:38:06.657597;1035;135576;115037;128741;171479;524159;524159;63.0;0.0;95.5
11:38:06.672532;1036;135410;114989;128711;171252;524159;524159;63.0;0.0;95.5
11:38:06.681604;1037;135222;114959;128687;170989;524159;524159;63.0;875.7;95.5
11:38:06.687662;1038;135163;114958;128695;170891;524159;524159;63.0;0.0;95.5
11:38:06.692670;1039;135245;114997;128724;170984;524159;524159;63.0;0.0;95.5
11:38:06.867643;1040;135449;115036;128753;171233;524159;524159;63.0;0.0;95.5
11:38:06.881907;1041;135707;115084;128779;171552;524159;524159;63.0;0.0;95.5
11:38:06.887449;1042;135979;115125;128813;171897;524159;524159;63.0;0.0;95.5
11:38:06.897506;1043;136224;115154;128830;172245;524159;524159;63.0;0.0;95.5
11:38:06.902516;1044;136442;115186;128855;172580;524159;524159;63.0;0.0;95.5
11:38:07.067767;1045;136662;115218;128873;172899;524159;524159;63.0;0.0;95.5
11:38:07.072775;1046;136906;115250;128900;173239;524159;524159;63.0;0.0;95.5
11:38:07.082445;1047;137190;115310;128935;173631;524159;524159;63.0;0.0;95.5
11:38:07.087480;1048;137513;115363;128980;174062;524159;524159;63.0;0.0;95.4
11:38:07.097632;1049;137851;115420;129020;174524;524159;524159;63.0;0.0;95.4
11:38:07.267534;1050;138213;115488;129059;175032;524159;524159;63.0;0.0;95.4
11:38:07.267534;1051;138573;115545;129103;175533;524159;524159;63.0;0.0;95.4
11:38:07.282637;1052;138749;115526;129080;175829;524159;524159;63.0;0.0;95.4
11:38:07.287679;1053;138137;115281;128900;175122;524159;524159;63.0;0.0;95.4
11:38:07.297665;1054;137076;115065;128761;173778;524159;524159;63.0;0.0;95.4
11:38:07.467516;1055;136317;114977;128716;172713;524159;524159;63.0;0.0;95.4
11:38:07.472524;1056;135936;114967;128720;172115;524159;524159;63.0;0.0;95.4
11:38:07.482602;1057;135880;115005;128743;171937;524159;524159;63.0;0.0;95.4
11:38:07.487655;1058;136014;115052;128779;172049;524159;524159;63.0;0.0;95.4
11:38:07.497612;1059;136089;115056;128777;172111;524159;524159;63.0;0.0;95.4
11:38:07.667414;1060;136004;115017;128754;171983;524159;524159;63.0;0.0;95.4
11:38:07.683017;1061;135871;114992;128740;171776;524159;524159;63.0;0.0;95.4
11:38:07.687523;1062;135871;115007;128746;171744;524159;524159;63.0;992.4;95.4
11:38:07.687543;1063;135997;115036;128773;171882;524159;524159;63.0;0.0;95.4
11:38:07.697505;1064;136228;115085;128813;172152;524159;524159;63.0;0.0;95.4
11:38:07.867519;1065;136512;115143;128842;172516;524159;524159;63.0;0.0;95.4
11:38:07.867519;1066;136821;115190;128884;172914;524159;524159;63.0;0.0;95.4
11:38:07.883168;1067;137101;115227;128911;173301;524159;524159;63.0;0.0;95.4
11:38:07.887721;1068;137367;115276;128928;173680;524159;524159;63.0;0.0;95.4
11:38:07.897722;1069;137609;115306;128962;174035;524159;524159;63.0;0.0;95.4
11:38:08.067504;1070;137873;115340;128986;174413;524159;524159;63.0;0.0;95.4
11:38:08.067504;1071;138167;115388;129020;174828;524159;524159;63.0;0.0;95.4
11:38:08.083281;1072;138486;115445;129057;175275;524159;524159;63.0;0.0;95.4
11:38:08.087813;1073;138818;115510;129105;175740;524159;524159;63.0;0.0;95.4
11:38:08.097900;1074;139177;115571;129148;176243;524159;524159;63.0;0.0;95.4
11:38:08.267628;1075;139533;115628;129198;176757;524159;524159;63.0;0.0;95.4
11:38:08.267628;1076;139723;115618;129170;177063;524159;524159;63.0;0.0;95.4
11:38:08.283703;1077;139175;115382;128998;176443;524159;524159;63.0;0.0;95.4
11:38:08.287725;1078;138211;115175;128868;175204;524159;524159;63.0;0.0;95.4
11:38:08.297857;1079;137497;115087;128820;174202;524159;524159;63.0;0.0;95.4
11:38:08.467397;1080;137173;115091;128823;173685;524159;524159;63.0;0.0;95.4
11:38:08.487619;1081;137152;115132;128865;173556;524159;524159;63.0;0.0;95.4
11:38:08.487619;1082;137318;115185;128895;173693;524159;524159;63.0;0.0;95.4
11:38:08.497404;1083;137407;115195;128890;173770;524159;524159;63.0;0.0;95.4
11:38:08.497404;1084;137323;115147;128872;173641;524159;524159;63.0;0.0;95.4
11:38:08.667392;1085;137209;115144;128857;173484;524159;524159;63.0;0.0;95.4
11:38:08.677613;1086;137204;115143;128867;173450;524159;524159;63.0;0.0;95.4
11:38:08.687709;1087;137330;115190;128893;173568;524159;524159;63.0;999.2;95.4
11:38:08.687709;1088;137557;115236;128933;173822;524159;524159;63.0;0.0;95.4
11:38:08.697495;1089;137827;115292;128976;174160;524159;524159;63.0;0.0;95.4
11:38:08.867608;1090;138110;115336;129008;174536;524159;524159;63.0;0.0;95.4
11:38:08.877594;1091;138373;115378;129036;174904;524159;524159;63.0;0.0;95.4
11:38:08.884127;1092;138606;115415;129067;175233;524159;524159;63.0;0.0;95.4
11:38:08.887657;1093;138827;115453;129083;175549;524159;524159;63.0;0.0;95.4
11:38:08.897737;1094;139076;115488;129110;175914;524159;524159;63.0;0.0;95.4
11:38:09.067750;1095;139347;115539;129146;176289;524159;524159;63.0;0.0;95.4
11:38:09.077828;1096;139645;115590;129177;176693;524159;524159;63.0;0.0;95.4
11:38:09.087752;1097;139965;115650;129216;177126;524159;524159;63.0;0.0;95.4
11:38:09.097813;1098;140303;115710;129262;177585;524159;524159;63.0;0.0;95.4
11:38:09.097813;1099;140636;115765;129301;178058;524159;524159;63.0;0.0;95.4
11:38:09.267506;1100;140633;115674;129227;178140;524159;524159;63.0;0.0;95.4
11:38:09.277602;1101;139882;115427;129043;177245;524159;524159;63.0;0.0;95.4
11:38:09.284135;1102;138969;115259;128945;176039;524159;524159;63.0;0.0;95.4
11:38:09.287694;1103;138365;115216;128928;175185;524159;524159;63.0;0.0;95.4
11:38:09.297598;1104;138118;115229;128948;174797;524159;524159;63.0;0.0;95.4
11:38:09.467505;1105;138142;115275;128982;174764;524159;524159;63.0;0.0;95.4
11:38:09.477545;1106;138261;115327;129005;174868;524159;524159;63.0;0.0;95.4
11:38:09.487619;1107;138264;115310;128997;174854;524159;524159;63.0;0.0;95.4
11:38:09.487619;1108;138121;115276;128962;174673;524159;524159;63.0;0.0;95.4
11:38:09.497747;1109;137998;115255;128964;174484;524159;524159;63.0;0.0;95.4
11:38:09.667629;1110;138011;115282;128971;174478;524159;524159;63.0;0.0;95.4
11:38:09.687803;1111;138127;115322;128996;174607;524159;524159;64.0;962.7;95.4
11:38:09.697830;1112;138339;115368;129038;174865;524159;524159;64.0;0.0;95.4
11:38:09.697830;1113;138580;115418;129063;175174;524159;524159;64.0;0.0;95.4
11:38:09.697830;1114;138819;115466;129092;175508;524159;524159;64.0;0.0;95.4
11:38:09.867677;1115;139040;115496;129110;175849;524159;524159;64.0;0.0;95.4
11:38:09.877654;1116;139236;115532;129143;176154;524159;524159;64.0;0.0;95.4
11:38:09.887736;1117;139425;115558;129155;176451;524159;524159;64.0;0.0;95.4
11:38:09.897458;1118;139645;115594;129186;176782;524159;524159;64.0;0.0;95.4
11:38:09.897458;1119;139898;115637;129215;177154;524159;524159;64.0;0.0;95.4
11:38:10.067421;1120;140168;115700;129252;177552;524159;524159;64.0;0.0;95.4
11:38:10.077583;1121;140471;115747;129286;177992;524159;524159;64.0;0.0;95.4
11:38:10.085612;1122;140793;115813;129326;178455;524159;524159;64.0;0.0;95.4
11:38:10.087638;1123;141007;115811;129317;178793;524159;524159;64.0;0.0;95.3
11:38:10.097600;1124;140577;115613;129173;178334;524159;524159;64.0;0.0;95.3
11:38:10.267621;1125;139617;115391;129025;177147;524159;524159;64.0;0.0;95.3
11:38:10.277617;1126;138811;115303;128969;176082;524159;524159;64.0;0.0;95.3
11:38:10.287474;1127;138379;115290;128970;175492;524159;524159;64.0;0.0;95.3
11:38:10.297850;1128;138263;115320;128990;175275;524159;524159;64.0;0.0;95.3
11:38:10.297850;1129;138375;115367;129020;175367;524159;524159;64.0;0.0;95.3
11:38:10.467417;1130;138438;115374;129023;175452;524159;524159;64.0;0.0;95.3
11:38:10.477597;1131;138354;115338;128983;175346;524159;524159;64.0;0.0;95.3
11:38:10.487683;1132;138234;115306;128965;175166;524159;524159;64.0;0.0;95.3
11:38:10.487683;1133;138200;115310;128966;175072;524159;524159;64.0;0.0;95.3
11:38:10.497453;1134;138316;115343;128982;175186;524159;524159;64.0;0.0;95.3
11:38:10.667655;1135;138517;115398;129019;175427;524159;524159;64.0;958.7;95.3
11:38:10.677545;1136;138789;115449;129048;175760;524159;524159;64.0;0.0;95.3
11:38:10.687611;1137;139090;115489;129079;176119;524159;524159;64.0;0.0;95.3
11:38:10.687611;1138;139377;115534;129107;176495;524159;524159;64.0;0.0;95.3
11:38:10.697612;1139;139639;115569;129136;176841;524159;524159;64.0;0.0;95.3
11:38:10.867714;1140;139870;115593;129154;177170;524159;524159;64.0;0.0;95.3
11:38:10.877556;1141;140135;115637;129180;177528;524159;524159;64.0;0.0;95.3
11:38:10.887837;1142;140407;115687;129210;177921;524159;524159;64.0;0.0;95.3
11:38:10.897506;1143;140711;115742;129255;178347;524159;524159;64.0;0.0;95.3
11:38:10.897506;1144;141043;115812;129300;178814;524159;524159;64.0;0.0;95.3
11:38:11.077689;1145;141390;115867;129345;179277;524159;524159;64.0;0.0;95.3
11:38:11.077689;1146;141586;115849;129332;179565;524159;524159;64.0;0.0;95.3
11:38:11.087746;1147;141062;115630;129174;178992;524159;524159;64.0;0.0;95.3
11:38:11.097599;1148;140112;115433;129035;177834;524159;524159;64.0;0.0;95.3
11:38:11.102605;1149;139383;115357;128993;176898;524159;524159;64.0;0.0;95.3
11:38:11.267394;1150;139053;115371;129012;176411;524159;524159;64.0;0.0;95.3
11:38:11.282679;1151;139028;115417;129046;176308;524159;524159;64.0;0.0;95.3
11:38:11.287797;1152;139185;115474;129078;176446;524159;524159;64.0;0.0;95.3
11:38:11.297469;1153;139259;115474;129089;176528;524159;524159;64.0;0.0;95.3
11:38:11.307597;1154;139156;115440;129063;176414;524159;524159;64.0;0.0;95.3
11:38:11.467474;1155;139021;115417;129048;176241;524159;524159;64.0;0.0;95.3
11:38:11.477537;1156;138995;115432;129067;176208;524159;524159;64.0;0.0;95.3
11:38:11.487538;1157;139104;115481;129099;176335;524159;524159;64.0;0.0;95.3
11:38:11.487538;1158;139291;115519;129130;176553;524159;524159;64.0;0.0;95.3
11:38:11.497789;1159;139537;115578;129170;176850;524159;524159;64.0;949.1;95.3
11:38:11.667592;1160;139806;115632;129200;177184;524159;524159;64.0;0.0;95.3
11:38:11.677597;1161;140060;115660;129224;177499;524159;524159;64.0;0.0;95.3
11:38:11.687725;1162;140290;115694;129255;177822;524159;524159;64.0;0.0;95.3
11:38:11.697695;1163;140507;115725;129267;178125;524159;524159;64.0;0.0;95.3
11:38:11.707575;1164;140734;115770;129300;178430;524159;524159;64.0;0.0;95.3
11:38:11.867849;1165;141009;115822;129335;178765;524159;524159;64.0;0.0;95.3
11:38:11.877649;1166;141335;115877;129380;179166;524159;524159;64.0;0.0;95.3
11:38:11.887611;1167;141681;115947;129420;179609;524159;524159;64.0;0.0;95.3
11:38:11.897792;1168;141886;115930;129411;179905;524159;524159;64.0;0.0;95.3
11:38:11.907409;1169;141398;115725;129264;179334;524159;524159;64.0;0.0;95.3
11:38:12.067507;1170;140510;115549;129144;178222;524159;524159;64.0;0.0;95.3
11:38:12.077859;1171;139862;115489;129118;177333;524159;524159;64.0;0.0;95.3
11:38:12.088034;1172;139590;115502;129140;176877;524159;524159;64.0;0.0;95.3
11:38:12.097488;1173;139618;115559;129177;176827;524159;524159;64.0;0.0;95.3
11:38:12.097488;1174;139803;115621;129220;177011;524159;524159;64.0;0.0;95.3
11:38:12.267557;1175;139866;115615;129212;177072;524159;524159;64.0;0.0;95.3
11:38:12.277453;1176;139726;115570;129187;176882;524159;524159;64.0;0.0;95.3
11:38:12.288689;1177;139587;115547;129174;176682;524159;524159;64.0;0.0;95.3
11:38:12.297731;1178;139586;115566;129194;176633;524159;524159;64.0;0.0;95.3
11:38:12.307410;1179;139719;115593;129208;176760;524159;524159;64.0;0.0;95.3
11:38:12.467495;1180;139918;115631;129223;176981;524159;524159;64.0;0.0;95.3
11:38:12.482651;1181;140167;115671;129252;177281;524159;524159;64.0;0.0;95.3
11:38:12.488721;1182;140416;115715;129279;177588;524159;524159;64.0;938.5;95.3
11:38:12.497778;1183;140659;115754;129301;177883;524159;524159;64.0;0.0;95.3
11:38:12.507830;1184;140892;115790;129338;178169;524159;524159;64.0;0.0;95.3
11:38:12.667868;1185;141126;115838;129367;178462;524159;524159;64.0;0.0;95.3
11:38:12.677375;1186;141342;115869;129397;178732;524159;524159;64.0;0.0;95.3
11:38:12.688983;1187;141171;115768;129314;178562;524159;524159;64.0;0.0;95.3
11:38:12.697853;1188;140398;115583;129189;177619;524159;524159;64.0;0.0;95.3
11:38:12.697853;1189;139588;115464;129125;176563;524159;524159;64.0;0.0;95.3
11:38:12.867668;1190;139100;115436;129114;175833;524159;524159;64.0;0.0;95.3
11:38:12.889110;1191;138991;115475;129143;175575;524159;524159;64.0;0.0;95.3
11:38:12.902685;1192;139150;115536;129195;175676;524159;524159;64.0;0.0;95.3
11:38:12.902685;1193;139250;115548;129193;175768;524159;524159;64.0;0.0;95.3
11:38:12.907709;1194;139148;115508;129163;175625;524159;524159;64.0;0.0;95.3
11:38:13.067612;1195;138964;115483;129150;175358;524159;524159;64.0;0.0;95.3
11:38:13.077509;1196;138888;115483;129153;175218;524159;524159;63.0;0.0;95.3
11:38:13.088989;1197;138946;115514;129178;175241;524159;524159;63.0;0.0;95.3
11:38:13.097577;1198;139112;115562;129208;175386;524159;524159;63.0;0.0;95.3
11:38:13.107464;1199;139340;115606;129235;175646;524159;524159;63.0;0.0;95.3
11:38:13.267547;1200;139580;115653;129271;175946;524159;524159;63.0;0.0;95.3
11:38:13.289032;1201;139808;115692;129310;176239;524159;524159;63.0;0.0;95.3
11:38:13.297591;1202;140034;115730;129330;176522;524159;524159;63.0;0.0;95.3
11:38:13.297591;1203;140237;115759;129352;176774;524159;524159;63.0;0.0;95.3
11:38:13.307537;1204;140054;115643;129253;176542;524159;524159;63.0;0.0;95.3
11:38:13.477846;1205;139144;115408;129108;175349;524159;524159;63.0;912.8;95.3
11:38:13.487414;1206;138138;115265;129013;173966;524159;524159;63.0;0.0;95.3
11:38:13.497498;1207;137461;115211;128987;172984;524159;524159;63.0;0.0;95.3
11:38:13.507618;1208;137164;115207;128991;172451;524159;524159;63.0;0.0;95.3
11:38:13.507618;1209;137189;115240;129005;172332;524159;524159;63.0;0.0;95.3
11:38:13.677650;1210;137249;115249;129012;172295;524159;524159;63.0;0.0;95.3
11:38:13.682657;1211;137111;115213;128984;172065;524159;524159;63.0;0.0;95.3
11:38:13.689223;1212;136848;115170;128953;171684;524159;524159;63.0;0.0;95.3
11:38:13.697765;1213;136685;115160;128956;171393;524159;524159;63.0;0.0;95.3
11:38:13.707792;1214;136690;115179;128982;171322;524159;524159;63.0;0.0;95.3
11:38:13.877620;1215;136815;115220;129008;171406;524159;524159;63.0;0.0;95.3
11:38:13.889850;1216;137008;115247;129030;171585;524159;524159;63.0;0.0;95.3
11:38:13.889850;1217;137213;115291;129051;171808;524159;524159;63.0;0.0;95.3
11:38:13.897893;1218;137407;115313;129074;172011;524159;524159;63.0;0.0;95.3
11:38:13.907433;1219;137595;115327;129085;172193;524159;524159;63.0;0.0;95.3
11:38:14.077435;1220;137754;115352;129097;172387;524159;524159;63.0;0.0;95.3
11:38:14.087635;1221;137955;115377;129119;172615;524159;524159;63.0;0.0;95.3
11:38:14.097726;1222;138048;115361;129097;172706;524159;524159;63.0;0.0;95.3
11:38:14.097726;1223;137395;115138;128936;171875;524159;524159;63.0;0.0;95.3
11:38:14.107757;1224;136104;114864;128760;170104;524159;524159;63.0;0.0;95.3
11:38:14.277866;1225;134938;114700;128667;168385;524159;524159;63.0;0.0;95.3
11:38:14.289541;1226;134196;114631;128616;167186;524159;524159;63.0;0.0;95.3
11:38:14.297588;1227;133765;114581;128594;166415;524159;524159;63.0;879.8;95.3
11:38:14.307627;1228;133618;114574;128581;166052;524159;524159;63.0;0.0;95.3
11:38:14.307627;1229;133522;114548;128574;165787;524159;524159;63.0;0.0;95.3
11:38:14.477458;1230;133309;114488;128529;165411;524159;524159;63.0;0.0;95.3
11:38:14.489663;1231;133059;114430;128494;164986;524159;524159;63.0;0.0;95.3
11:38:14.497708;1232;132930;114413;128478;164724;524159;524159;63.0;0.0;95.3
11:38:14.497708;1233;132959;114421;128475;164696;524159;524159;63.0;0.0;95.3
11:38:14.507590;1234;133091;114443;128484;164833;524159;524159;63.0;0.0;95.3
11:38:14.677674;1235;133282;114464;128501;165059;524159;524159;63.0;0.0;95.3
11:38:14.690251;1236;133492;114482;128509;165316;524159;524159;63.0;0.0;95.3
11:38:14.697794;1237;133682;114503;128520;165568;524159;524159;63.0;0.0;95.3
11:38:14.707628;1238;133851;114508;128527;165813;524159;524159;63.0;0.0;95.3
11:38:14.707628;1239;134038;114535;128542;166082;524159;524159;63.0;0.0;95.3
11:38:14.877626;1240;134237;114570;128558;166379;524159;524159;63.0;0.0;95.3
11:38:14.890453;1241;134501;114604;128586;166758;524159;524159;63.0;0.0;95.3
11:38:14.897505;1242;134787;114662;128607;167180;524159;524159;63.0;0.0;95.3
11:38:14.907553;1243;135111;114695;128641;167654;524159;524159;63.0;0.0;95.3
11:38:14.907553;1244;135437;114747;128686;168130;524159;524159;63.0;0.0;95.3
11:38:15.077656;1245;135768;114794;128713;168623;524159;524159;63.0;740.4;95.3
11:38:15.090197;1246;136102;114841;128745;169127;524159;524159;63.0;0.0;95.3
11:38:15.097753;1247;136452;114894;128781;169636;524159;524159;63.0;0.0;95.3
11:38:15.097753;1248;136810;114951;128811;170146;524159;524159;63.0;0.0;95.3
11:38:15.107718;1249;137138;114978;128829;170627;524159;524159;63.0;0.0;95.3
11:38:15.277348;1250;136809;114768;128675;170258;524159;524159;63.0;0.0;95.3
11:38:15.282355;1251;135524;114430;128442;168565;524159;524159;63.0;0.0;95.3
11:38:15.290390;1252;134182;114196;128299;166670;524159;524159;63.0;0.0;95.3
11:38:15.297409;1253;133218;114078;128232;165237;524159;524159;63.0;0.0;95.3
11:38:15.307396;1254;132595;113994;128177;164227;524159;524159;63.0;0.0;95.3
11:38:15.477502;1255;132248;113958;128164;163605;524159;524159;63.0;0.0;95.3
11:38:15.487397;1256;132119;113945;128148;163319;524159;524159;63.0;0.0;95.3
11:38:15.490939;1257;131936;113899;128118;163020;524159;524159;63.0;0.0;95.3
11:38:15.497486;1258;131685;113844;128078;162636;524159;524159;63.0;0.0;95.3
11:38:15.507362;1259;131495;113805;128055;162348;524159;524159;63.0;0.0;95.3
11:38:15.687357;1260;131443;113807;128051;162263;524159;524159;63.0;0.0;95.3
11:38:15.697584;1261;131561;113831;128075;162404;524159;524159;63.0;0.0;95.3
11:38:15.702593;1262;131759;113866;128089;162678;524159;524159;63.0;688.2;95.3
11:38:15.702593;1263;131986;113893;128109;163000;524159;524159;63.0;0.0;95.3
11:38:15.707663;1264;132207;113919;128129;163323;524159;524159;63.0;0.0;95.3
11:38:15.877543;1265;132416;113940;128137;163633;524159;524159;63.0;0.0;95.3
11:38:15.877543;1266;132612;113962;128148;163947;524159;524159;63.0;0.0;95.3
11:38:15.891583;1267;132855;113996;128176;164326;524159;524159;63.0;0.0;95.3
11:38:15.897607;1268;133128;114038;128201;164734;524159;524159;63.0;0.0;95.3
11:38:15.907285;1269;133445;114091;128232;165201;524159;524159;63.0;0.0;95.3
11:38:16.077421;1270;133783;114146;128270;165714;524159;524159;63.0;0.0;95.3
11:38:16.087684;1271;134126;114201;128301;166238;524159;524159;63.0;0.0;95.3
11:38:16.091699;1272;134491;114257;128347;166794;524159;524159;63.0;0.0;95.3
11:38:16.097741;1273;134852;114320;128387;167357;524159;524159;63.0;0.0;95.3
11:38:16.107540;1274;135240;114377;128430;167936;524159;524159;63.0;0.0;95.3
11:38:16.282676;1275;135583;114414;128450;168467;524159;524159;63.0;0.0;95.3
11:38:16.297301;1276;135289;114218;128291;168165;524159;524159;63.0;0.0;95.3
11:38:16.297301;1277;134272;113928;128099;166826;524159;524159;63.0;0.0;95.3
11:38:16.307426;1278;133279;113759;127990;165397;524159;524159;63.0;0.0;95.3
11:38:16.307426;1279;132667;113678;127940;164436;524159;524159;63.0;0.0;95.3
11:38:16.482340;1280;132341;113645;127925;163873;524159;524159;63.0;0.0;95.3
11:38:16.491941;1281;132300;113660;127937;163714;524159;524159;63.0;745.6;95.3
11:38:16.497505;1282;132385;113678;127951;163759;524159;524159;63.0;0.0;95.3
11:38:16.507583;1283;132384;113660;127937;163736;524159;524159;63.0;0.0;95.3
11:38:16.507583;1284;132304;113628;127916;163607;524159;524159;63.0;0.0;95.3
11:38:16.677304;1285;132281;113618;127913;163561;524159;524159;63.0;0.0;95.3
11:38:16.687577;1286;132414;113645;127938;163717;524159;524159;64.0;0.0;95.3
11:38:16.692091;1287;132641;113702;127974;164035;524159;524159;64.0;0.0;95.3
11:38:16.697613;1288;132955;113763;128011;164476;524159;524159;64.0;0.0;95.3
11:38:16.707451;1289;133268;113805;128039;164935;524159;524159;64.0;0.0;95.3
11:38:16.877367;1290;133582;113854;128082;165419;524159;524159;64.0;0.0;95.3
11:38:16.887396;1291;133887;113892;128107;165900;524159;524159;64.0;0.0;95.3
11:38:16.897491;1292;134192;113942;128133;166388;524159;524159;64.0;0.0;95.3
11:38:16.907421;1293;134498;113991;128167;166881;524159;524159;64.0;0.0;95.3
11:38:16.907421;1294;134835;114046;128205;167388;524159;524159;64.0;0.0;95.3
11:38:17.077659;1295;135197;114117;128253;167958;524159;524159;64.0;0.0;95.3
11:38:17.087322;1296;135584;114188;128304;168544;524159;524159;64.0;0.0;95.3
11:38:17.097385;1297;135989;114259;128355;169163;524159;524159;64.0;0.0;95.3
11:38:17.097385;1298;136400;114336;128402;169778;524159;524159;64.0;0.0;95.3
11:38:17.107561;1299;136832;114418;128463;170415;524159;524159;64.0;0.0;95.3
11:38:17.282629;1300;137007;114368;128416;170756;524159;524159;64.0;0.0;95.3
11:38:17.292199;1301;136448;114124;128241;170113;524159;524159;65.0;0.0;95.3
11:38:17.297765;1302;135583;113942;128119;168987;524159;524159;65.0;0.0;95.3
11:38:17.297765;1303;135030;113881;128093;168170;524159;524159;65.0;0.0;95.3
11:38:17.307302;1304;134816;113893;128103;167795;524159;524159;65.0;0.0;95.3
11:38:17.487769;1305;134875;113945;128152;167793;524159;524159;65.0;0.0;95.3
11:38:17.497346;1306;135096;114000;128193;168034;524159;524159;65.0;0.0;95.3
11:38:17.497346;1307;135233;114021;128202;168204;524159;524159;65.0;0.0;95.3
11:38:17.507433;1308;135207;113994;128180;168197;524159;524159;65.0;0.0;95.3
11:38:17.507433;1309;135208;114003;128187;168194;524159;524159;65.0;1091.9;95.3
11:38:17.677345;1310;135321;114033;128211;168348;524159;524159;65.0;0.0;95.3
11:38:17.692570;1311;135546;114095;128258;168657;524159;524159;65.0;0.0;95.3
11:38:17.697617;1312;135839;114166;128302;169077;524159;524159;65.0;0.0;95.3
11:38:17.707717;1313;136177;114235;128352;169567;524159;524159;65.0;0.0;95.3
11:38:17.707717;1314;136518;114300;128397;170073;524159;524159;65.0;0.0;95.3
11:38:17.877312;1315;136840;114359;128442;170568;524159;524159;65.0;0.0;95.3
11:38:17.892670;1316;137150;114415;128472;171045;524159;524159;66.0;0.0;95.3
11:38:17.897712;1317;137469;114463;128510;171523;524159;524159;66.0;0.0;95.3
11:38:17.907447;1318;137769;114522;128549;172011;524159;524159;66.0;0.0;95.3
11:38:17.917597;1319;138123;114599;128600;172541;524159;524159;66.0;0.0;95.3
11:38:18.077692;1320;138511;114674;128659;173103;524159;524159;66.0;0.0;95.3
11:38:18.092803;1321;138897;114739;128707;173670;524159;524159;66.0;0.0;95.3
11:38:18.097347;1322;138912;114646;128624;173798;524159;524159;66.0;0.0;95.3
11:38:18.097347;1323;138254;114405;128459;173012;524159;524159;66.0;0.0;95.4
11:38:18.107432;1324;137494;114261;128362;172017;524159;524159;66.0;0.0;95.4
11:38:18.277786;1325;137053;114237;128350;171396;524159;524159;66.0;0.0;95.4
11:38:18.287618;1326;136908;114269;128376;171146;524159;524159;67.0;0.0;95.4
11:38:18.297360;1327;137044;114339;128432;171263;524159;524159;67.0;0.0;95.4
11:38:18.297360;1328;137252;114391;128473;171517;524159;524159;67.0;0.0;95.4
11:38:18.307504;1329;137367;114396;128465;171684;524159;524159;67.0;0.0;95.4
11:38:18.477487;1330;137378;114384;128468;171716;524159;524159;67.0;0.0;95.4
11:38:18.492888;1331;137416;114403;128474;171802;524159;524159;67.0;0.0;95.4
11:38:18.497427;1332;137569;114451;128507;172016;524159;524159;67.0;0.0;95.4
11:38:18.507482;1333;137825;114514;128556;172357;524159;524159;67.0;0.0;95.4
11:38:18.507482;1334;138140;114583;128603;172789;524159;524159;67.0;0.0;95.4
11:38:18.677389;1335;138490;114657;128647;173263;524159;524159;67.0;1036.4;95.4
11:38:18.692701;1336;138825;114721;128694;173768;524159;524159;67.0;0.0;95.4
11:38:18.697732;1337;139161;114773;128739;174257;524159;524159;67.0;0.0;95.4
11:38:18.697732;1338;139471;114835;128773;174736;524159;524159;67.0;0.0;95.4
11:38:18.707615;1339;139783;114884;128809;175207;524159;524159;67.0;0.0;95.4
11:38:18.877732;1340;140101;114944;128854;175672;524159;524159;67.0;0.0;95.4
11:38:18.892563;1341;140453;115012;128898;176201;524159;524159;68.0;0.0;95.4
11:38:18.897601;1342;140821;115086;128956;176749;524159;524159;68.0;0.0;95.4
11:38:18.907630;1343;141210;115164;129002;177325;524159;524159;68.0;0.0;95.4
11:38:18.907630;1344;141605;115249;129057;177920;524159;524159;68.0;0.0;95.4
11:38:19.087693;1345;141900;115262;129060;178388;524159;524159;68.0;0.0;95.4
11:38:19.097371;1346;141503;115031;128889;177996;524159;524159;68.0;0.0;95.4
11:38:19.107331;1347;140598;114786;128733;176896;524159;524159;68.0;0.0;95.4
11:38:19.107331;1348;139814;114696;128674;175890;524159;524159;68.0;0.0;95.4
11:38:19.117606;1349;139412;114691;128677;175342;524159;524159;68.0;0.0;95.4
11:38:19.277714;1350;139293;114728;128704;175159;524159;524159;68.0;0.0;95.4
11:38:19.292577;1351;139403;114794;128752;175278;524159;524159;68.0;0.0;95.4
11:38:19.307607;1352;139515;114825;128777;175429;524159;524159;68.0;0.0;95.4
11:38:19.317745;1353;139503;114817;128769;175434;524159;524159;68.0;0.0;95.4
11:38:19.322752;1354;139431;114806;128761;175349;524159;524159;68.0;0.0;95.4
11:38:19.492455;1355;139433;114819;128778;175355;524159;524159;68.0;0.0;95.4
11:38:19.497504;1356;139561;114871;128808;175499;524159;524159;68.0;0.0;95.4
11:38:19.507722;1357;139784;114932;128849;175777;524159;524159;68.0;0.0;95.4
11:38:19.507722;1358;140074;114997;128905;176148;524159;524159;68.0;0.0;95.4
11:38:19.517423;1359;140369;115060;128936;176557;524159;524159;68.0;973.0;95.4
11:38:19.687406;1360;140658;115113;128987;176968;524159;524159;68.0;0.0;95.4
11:38:19.697702;1361;140929;115168;129018;177355;524159;524159;69.0;0.0;95.4
11:38:19.707440;1362;141191;115218;129055;177751;524159;524159;69.0;0.0;95.4
11:38:19.707440;1363;141462;115265;129080;178157;524159;524159;69.0;0.0;95.4
11:38:19.717317;1364;141741;115320;129125;178577;524159;524159;69.0;0.0;95.4
11:38:19.717317;1365;142062;115388;129159;179030;524159;524159;69.0;0.0;95.4
11:38:20.092564;1366;142403;115466;129219;179515;524159;524159;69.0;0.0;95.4
11:38:20.097599;1367;142746;115529;129270;180017;524159;524159;69.0;0.0;95.4
11:38:20.107323;1368;143103;115602;129316;180550;524159;524159;69.0;0.0;95.4
11:38:20.107323;1369;143457;115668;129363;181069;524159;524159;69.0;0.0;95.4
11:38:20.117462;1370;143484;115580;129292;181222;524159;524159;69.0;0.0;95.4
11:38:20.127749;1371;142723;115302;129089;180382;524159;524159;69.0;0.0;95.4
11:38:20.137505;1372;141705;115116;128978;179158;524159;524159;69.0;0.0;95.4
11:38:20.137505;1373;141017;115072;128948;178256;524159;524159;69.0;0.0;95.3
11:38:20.147509;1374;140671;115091;128967;177767;524159;524159;69.0;0.0;95.3
11:38:20.157458;1375;140630;115221;129092;177688;524159;524159;69.0;0.0;95.3
11:38:20.492882;1376;140797;115497;129348;178221;524159;524159;69.0;0.0;95.3
11:38:20.497426;1377;140925;115624;129470;179017;524159;524159;69.0;0.0;95.3
11:38:20.507743;1378;140908;115624;129477;179569;524159;524159;69.0;0.0;95.3
11:38:20.507743;1379;140840;115571;129426;179817;524159;524159;69.0;0.0;95.3
11:38:20.517709;1380;140843;115505;129361;179860;524159;524159;69.0;869.9;95.3
11:38:20.527774;1381;140959;115500;129328;179885;524159;524159;69.0;0.0;95.3
11:38:20.537751;1382;141160;115507;129327;179986;524159;524159;69.0;0.0;95.3
11:38:20.537751;1383;141406;115535;129333;180136;524159;524159;69.0;0.0;95.3
11:38:20.547808;1384;141665;115567;129351;180320;524159;524159;69.0;0.0;95.3
11:38:20.557518;1385;141906;115601;129368;180510;524159;524159;69.0;0.0;95.3
11:38:20.893049;1386;142137;115629;129393;180715;524159;524159;69.0;0.0;95.3
11:38:20.897606;1387;142362;115663;129418;180938;524159;524159;69.0;0.0;95.3
11:38:20.907652;1388;142605;115700;129429;181166;524159;524159;69.0;0.0;95.3
11:38:20.912660;1389;142867;115750;129460;181454;524159;524159;69.0;0.0;95.3
11:38:20.917714;1390;143156;115808;129503;181770;524159;524159;69.0;0.0;95.3
11:38:20.927638;1391;143482;115869;129548;182148;524159;524159;69.0;0.0;95.3
11:38:20.937664;1392;143791;115911;129583;182490;524159;524159;69.0;0.0;95.3
11:38:20.937664;1393;143657;115776;129469;182354;524159;524159;69.0;0.0;95.3
11:38:20.947780;1394;142800;115539;129294;181305;524159;524159;69.0;0.0;95.3
11:38:20.957424;1395;141864;115395;129214;180096;524159;524159;69.0;0.0;95.3
11:38:21.297729;1396;141279;115374;129204;179267;524159;524159;69.0;0.0;95.3
11:38:21.307619;1397;141066;115411;129238;178868;524159;524159;69.0;0.0;95.3
11:38:21.312625;1398;141145;115482;129285;178849;524159;524159;69.0;0.0;95.3
11:38:21.312625;1399;141275;115528;129307;178917;524159;524159;69.0;0.0;95.3
11:38:21.317670;1400;141231;115496;129296;178819;524159;524159;69.0;0.0;95.3
11:38:21.327371;1401;141071;115465;129281;178558;524159;524159;69.0;0.0;95.3
11:38:21.337742;1402;140951;115472;129278;178348;524159;524159;69.0;0.0;95.3
11:38:21.337742;1403;140967;115503;129302;178308;524159;524159;69.0;0.0;95.3
11:38:21.347775;1404;141120;115541;129344;178426;524159;524159;69.0;941.7;95.3
11:38:21.357402;1405;141343;115611;129381;178649;524159;524159;69.0;0.0;95.3
11:38:21.693489;1406;141615;115670;129422;178920;524159;524159;69.0;0.0;95.3
11:38:21.697505;1407;141877;115719;129457;179220;524159;524159;69.0;0.0;95.3
11:38:21.707529;1408;142103;115754;129484;179493;524159;524159;69.0;0.0;95.3
11:38:21.717358;1409;142321;115792;129504;179765;524159;524159;69.0;0.0;95.3
11:38:21.717358;1410;142538;115826;129534;180028;524159;524159;69.0;0.0;95.3
11:38:21.727601;1411;142790;115890;129569;180330;524159;524159;69.0;0.0;95.3
11:38:21.737587;1412;143079;115946;129619;180677;524159;524159;69.0;0.0;95.3
11:38:21.737587;1413;143246;115934;129606;180887;524159;524159;69.0;0.0;95.3
11:38:21.747629;1414;142760;115740;129455;180278;524159;524159;69.0;0.0;95.3
11:38:21.757572;1415;141819;115561;129342;179067;524159;524159;69.0;0.0;95.3
11:38:21.887692;1416;141060;115482;129306;178005;524159;524159;69.0;0.0;95.3
11:38:21.897767;1417;140680;115495;129314;177375;524159;524159;69.0;0.0;95.3
11:38:21.897767;1418;140686;115562;129366;177213;524159;524159;69.0;0.0;95.3
11:38:21.907624;1419;140867;115627;129418;177318;524159;524159;69.0;0.0;95.3
11:38:21.917570;1420;140933;115638;129419;177325;524159;524159;69.0;0.0;95.3
11:38:22.087283;1421;140801;115597;129390;177099;524159;524159;69.0;0.0;95.3
11:38:22.097381;1422;140628;115582;129380;176825;524159;524159;69.0;0.0;95.3
11:38:22.097381;1423;140568;115603;129405;176683;524159;524159;69.0;0.0;95.3
11:38:22.112511;1424;140648;115643;129432;176707;524159;524159;69.0;0.0;95.3
11:38:22.117546;1425;140828;115707;129474;176850;524159;524159;69.0;0.0;95.3
11:38:22.287699;1426;141080;115757;129515;177090;524159;524159;68.0;0.0;95.3
11:38:22.297415;1427;141322;115822;129565;177346;524159;524159;68.0;0.0;95.3
11:38:22.297415;1428;141581;115868;129595;177601;524159;524159;68.0;984.1;95.3
11:38:22.312332;1429;141824;115905;129623;177850;524159;524159;68.0;0.0;95.3
11:38:22.322446;1430;142048;115947;129654;178085;524159;524159;68.0;0.0;95.3
11:38:22.487644;1431;142050;115884;129607;178036;524159;524159;68.0;0.0;95.3
11:38:22.497445;1432;141337;115667;129454;177057;524159;524159;68.0;0.0;95.3
11:38:22.507354;1433;140286;115494;129344;175563;524159;524159;68.0;0.0;95.3
11:38:22.507354;1434;139495;115426;129308;174350;524159;524159;68.0;0.0;95.3
11:38:22.517849;1435;139147;115443;129321;173682;524159;524159;68.0;0.0;95.3
11:38:22.687690;1436;139151;115496;129371;173499;524159;524159;68.0;0.0;95.3
11:38:22.697336;1437;139274;115541;129408;173501;524159;524159;68.0;0.0;95.3
11:38:22.697336;1438;139237;115525;129386;173345;524159;524159;68.0;0.0;95.3
11:38:22.712568;1439;139060;115491;129360;172991;524159;524159;68.0;0.0;95.3
11:38:22.717591;1440;138899;115472;129351;172681;524159;524159;68.0;0.0;95.3
11:38:22.887305;1441;138854;115487;129364;172516;524159;524159;68.0;0.0;95.3
11:38:22.897598;1442;138958;115525;129391;172559;524159;524159;68.0;0.0;95.3
11:38:22.902605;1443;139127;115570;129431;172694;524159;524159;68.0;0.0;95.3
11:38:22.907650;1444;139361;115610;129455;172919;524159;524159;68.0;0.0;95.3
11:38:22.917495;1445;139600;115674;129488;173184;524159;524159;68.0;0.0;95.3
11:38:23.087502;1446;139830;115705;129513;173454;524159;524159;67.0;0.0;95.3
11:38:23.097600;1447;140065;115733;129530;173730;524159;524159;67.0;0.0;95.3
11:38:23.097600;1448;140112;115693;129495;173774;524159;524159;67.0;0.0;95.3
11:38:23.107521;1449;139394;115452;129321;172795;524159;524159;67.0;0.0;95.3
11:38:23.117622;1450;138103;115206;129153;170982;524159;524159;67.0;0.0;95.3
11:38:23.287426;1451;137011;115078;129087;169367;524159;524159;67.0;911.1;95.3
11:38:23.307583;1452;136342;115034;129059;168296;524159;524159;67.0;0.0;95.3
11:38:23.317856;1453;136048;115028;129059;167709;524159;524159;67.0;0.0;95.3
11:38:23.317856;1454;136014;115051;129068;167506;524159;524159;67.0;0.0;95.3
11:38:23.317856;1455;135939;115028;129059;167308;524159;524159;67.0;0.0;95.3
11:38:23.492409;1456;135718;114977;129013;166928;524159;524159;67.0;0.0;95.3
11:38:23.507540;1457;135475;114939;128990;166516;524159;524159;67.0;0.0;95.3
11:38:23.512548;1458;135353;114925;128993;166276;524159;524159;67.0;0.0;95.3
11:38:23.517589;1459;135387;114947;129001;166243;524159;524159;67.0;0.0;95.3
11:38:23.527774;1460;135520;114977;129023;166385;524159;524159;67.0;0.0;95.3
11:38:23.687401;1461;135719;115003;129044;166594;524159;524159;67.0;0.0;95.3
11:38:23.697466;1462;135946;115044;129070;166862;524159;524159;67.0;0.0;95.3
11:38:23.697466;1463;136166;115070;129079;167127;524159;524159;67.0;0.0;95.3
11:38:23.707751;1464;136387;115092;129097;167395;524159;524159;67.0;0.0;95.3
11:38:23.717481;1465;136597;115106;129106;167640;524159;524159;67.0;0.0;95.3
11:38:23.887707;1466;136405;114988;129013;167384;524159;524159;66.0;0.0;95.3
11:38:23.897581;1467;135386;114714;128825;166012;524159;524159;66.0;0.0;95.3
11:38:23.907748;1468;134163;114512;128689;164294;524159;524159;66.0;0.0;95.3
11:38:23.917418;1469;133326;114423;128638;163045;524159;524159;66.0;0.0;95.3
11:38:23.917418;1470;132878;114379;128616;162329;524159;524159;66.0;0.0;95.3
11:38:24.087807;1471;132776;114395;128619;162095;524159;524159;66.0;0.0;95.3
11:38:24.097684;1472;132820;114400;128631;162065;524159;524159;66.0;820.1;95.3
11:38:24.107547;1473;132746;114365;128596;161945;524159;524159;66.0;0.0;95.3
11:38:24.117549;1474;132577;114319;128566;161684;524159;524159;66.0;0.0;95.3
11:38:24.127370;1475;132485;114300;128556;161515;524159;524159;66.0;0.0;95.3
11:38:24.294752;1476;132536;114307;128567;161537;524159;524159;66.0;0.0;95.3
11:38:24.297294;1477;132699;114333;128587;161730;524159;524159;66.0;0.0;95.3
11:38:24.307683;1478;132952;114371;128611;162037;524159;524159;66.0;0.0;95.3
11:38:24.307683;1479;133235;114424;128640;162416;524159;524159;66.0;0.0;95.3
11:38:24.317632;1480;133529;114453;128663;162840;524159;524159;66.0;0.0;95.3
11:38:24.487462;1481;133803;114484;128681;163264;524159;524159;66.0;0.0;95.3
11:38:24.502541;1482;134034;114505;128692;163643;524159;524159;66.0;0.0;95.3
11:38:24.507579;1483;133805;114371;128593;163407;524159;524159;66.0;0.0;95.3
11:38:24.517607;1484;132899;114147;128438;162243;524159;524159;66.0;0.0;95.3
11:38:24.517607;1485;131955;113989;128340;160967;524159;524159;66.0;0.0;95.3
11:38:24.687571;1486;131393;113932;128303;160148;524159;524159;66.0;0.0;95.3
11:38:24.697584;1487;131250;113960;128313;159885;524159;524159;66.0;0.0;95.3
11:38:24.707425;1488;131422;113996;128348;160068;524159;524159;66.0;0.0;95.3
11:38:24.707425;1489;131603;114008;128355;160285;524159;524159;66.0;713.9;95.3
11:38:24.717543;1490;131620;113975;128328;160338;524159;524159;66.0;0.0;95.3
11:38:24.887358;1491;131577;113955;128318;160330;524159;524159;66.0;0.0;95.3
11:38:24.897716;1492;131611;113953;128320;160425;524159;524159;66.0;0.0;95.3
11:38:24.907493;1493;131786;114000;128345;160690;524159;524159;66.0;0.0;95.3
11:38:24.917760;1494;132058;114042;128368;161093;524159;524159;66.0;0.0;95.3
11:38:24.927571;1495;132382;114094;128410;161595;524159;524159;66.0;0.0;95.3
11:38:25.087618;1496;132728;114148;128449;162131;524159;524159;66.0;0.0;95.3
11:38:25.097447;1497;133054;114198;128481;162669;524159;524159;66.0;0.0;95.3
11:38:25.112291;1498;133386;114231;128506;163220;524159;524159;66.0;0.0;95.3
11:38:25.117320;1499;133673;114259;128514;163699;524159;524159;66.0;0.0;95.3
11:38:25.117320;1500;133446;114125;128419;163527;524159;524159;66.0;0.0;95.3
11:38:25.287449;1501;132619;113914;128269;162500;524159;524159;65.0;0.0;95.3
11:38:25.297513;1502;131812;113791;128188;161449;524159;524159;65.0;0.0;95.3
11:38:25.307477;1503;131401;113770;128179;160887;524159;524159;65.0;0.0;95.3
11:38:25.307477;1504;131368;113801;128211;160818;524159;524159;65.0;0.0;95.3
11:38:25.317591;1505;131609;113861;128251;161142;524159;524159;65.0;0.0;95.3
11:38:25.495815;1506;131812;113879;128261;161458;524159;524159;65.0;0.0;95.3
11:38:25.507425;1507;131854;113865;128243;161601;524159;524159;65.0;694.2;95.3
11:38:25.507425;1508;131853;113851;128240;161677;524159;524159;65.0;0.0;95.3
11:38:25.517686;1509;131950;113879;128259;161884;524159;524159;65.0;0.0;95.3
11:38:25.527291;1510;132168;113924;128291;162245;524159;524159;65.0;0.0;95.3
11:38:25.687430;1511;132475;113981;128331;162738;524159;524159;65.0;0.0;95.3
11:38:25.697396;1512;132841;114042;128371;163304;524159;524159;65.0;0.0;95.3
11:38:25.707403;1513;133211;114099;128409;163905;524159;524159;65.0;0.0;95.3
11:38:25.717394;1514;133585;114156;128438;164499;524159;524159;65.0;0.0;95.3
11:38:25.717394;1515;133944;114209;128478;165062;524159;524159;65.0;0.0;95.3
11:38:25.895910;1516;134294;114261;128510;165611;524159;524159;65.0;0.0;95.3
11:38:25.902513;1517;134638;114312;128546;166175;524159;524159;65.0;0.0;95.3
11:38:25.907553;1518;135019;114383;128588;166773;524159;524159;65.0;0.0;95.3
11:38:25.917624;1519;135431;114447;128648;167419;524159;524159;65.0;0.0;95.3
11:38:25.917624;1520;135870;114518;128688;168098;524159;524159;65.0;0.0;95.3
11:38:26.087285;1521;136067;114482;128644;168494;524159;524159;65.0;0.0;95.3
11:38:26.097429;1522;135446;114243;128465;167859;524159;524159;65.0;0.0;95.3
11:38:26.107452;1523;134494;114048;128340;166699;524159;524159;65.0;0.0;95.3
11:38:26.117710;1524;133862;113995;128313;165904;524159;524159;65.0;703.0;95.3
11:38:26.117710;1525;133634;114016;128327;165640;524159;524159;65.0;0.0;95.3
11:38:26.287386;1526;133723;114071;128365;165799;524159;524159;65.0;0.0;95.3
11:38:26.297533;1527;133966;114129;128412;166141;524159;524159;65.0;0.0;95.3
11:38:26.307547;1528;134126;114139;128409;166418;524159;524159;65.0;0.0;95.3
11:38:26.317373;1529;134155;114121;128395;166554;524159;524159;65.0;0.0;95.3
11:38:26.317373;1530;134200;114131;128409;166712;524159;524159;65.0;0.0;95.3
11:38:26.497321;1531;134348;114174;128431;166998;524159;524159;66.0;0.0;95.3
11:38:26.507381;1532;134642;114227;128470;167445;524159;524159;66.0;0.0;95.3
11:38:26.517629;1533;134981;114306;128518;167994;524159;524159;66.0;0.0;95.3
11:38:26.527443;1534;135358;114365;128565;168588;524159;524159;66.0;0.0;95.3
11:38:26.527443;1535;135736;114432;128605;169171;524159;524159;66.0;0.0;95.3
11:38:26.697480;1536;136091;114486;128644;169751;524159;524159;66.0;0.0;95.3
11:38:26.702488;1537;136420;114533;128681;170309;524159;524159;66.0;0.0;95.3
11:38:26.707527;1538;136772;114592;128722;170900;524159;524159;66.0;0.0;95.3
11:38:26.717462;1539;137142;114660;128758;171484;524159;524159;66.0;0.0;95.3
11:38:26.727457;1540;137553;114734;128816;172110;524159;524159;66.0;0.0;95.3
11:38:26.897313;1541;137979;114809;128874;172760;524159;524159;66.0;671.1;95.3
11:38:26.902321;1542;138117;114760;128822;173092;524159;524159;66.0;0.0;95.3
11:38:26.912362;1543;137602;114568;128679;172623;524159;524159;66.0;0.0;95.3
11:38:26.917394;1544;136927;114463;128615;171905;524159;524159;66.0;0.0;95.3
11:38:26.927353;1545;136599;114463;128627;171543;524159;524159;66.0;0.0;95.3
11:38:27.097339;1546;136647;114529;128670;171593;524159;524159;66.0;0.0;95.3
11:38:27.107387;1547;136980;114621;128737;171993;524159;524159;66.0;0.0;95.3
11:38:27.117704;1548;137333;114690;128784;172454;524159;524159;66.0;0.0;95.2
11:38:27.127279;1549;137515;114687;128782;172739;524159;524159;66.0;0.0;95.2
11:38:27.127279;1550;137579;114691;128791;172906;524159;524159;66.0;0.0;95.2
11:38:27.297428;1551;137688;114722;128816;173134;524159;524159;66.0;0.0;95.2
11:38:27.297428;1552;137931;114780;128846;173478;524159;524159;66.0;0.0;95.2
11:38:27.307522;1553;138257;114855;128905;173925;524159;524159;66.0;0.0;95.2
11:38:27.317412;1554;138624;114932;128957;174448;524159;524159;66.0;0.0;95.2
11:38:27.327533;1555;139006;114999;128998;174989;524159;524159;66.0;0.0;95.2
11:38:27.497439;1556;139378;115065;129048;175540;524159;524159;67.0;0.0;95.2
11:38:27.512688;1557;139734;115119;129083;176089;524159;524159;67.0;0.0;95.2
11:38:27.517723;1558;140088;115175;129124;176625;524159;524159;67.0;672.0;95.2
11:38:27.517723;1559;140457;115244;129168;177167;524159;524159;67.0;0.0;95.2
11:38:27.527616;1560;140791;115286;129184;177684;524159;524159;67.0;0.0;95.2
11:38:27.697645;1561;140677;115165;129094;177704;524159;524159;67.0;0.0;95.2
11:38:27.702652;1562;140018;114981;128973;177081;524159;524159;67.0;0.0;95.2
11:38:27.707707;1563;139420;114919;128928;176467;524159;524159;67.0;0.0;95.2
11:38:27.717675;1564;139174;114942;128947;176208;524159;524159;67.0;0.0;95.2
11:38:27.727292;1565;139302;115023;129001;176352;524159;524159;67.0;0.0;95.2
11:38:27.897474;1566;139638;115109;129064;176726;524159;524159;67.0;0.0;95.2
11:38:27.902482;1567;139903;115153;129084;177098;524159;524159;67.0;0.0;95.2
11:38:27.907520;1568;140014;115155;129087;177325;524159;524159;67.0;0.0;95.2
11:38:27.917497;1569;140040;115164;129089;177480;524159;524159;67.0;0.0;95.2
11:38:27.927527;1570;140152;115191;129118;177725;524159;524159;67.0;0.0;95.2
11:38:28.097442;1571;140381;115258;129159;178080;524159;524159;67.0;0.0;95.2
11:38:28.102447;1572;140706;115326;129207;178530;524159;524159;67.0;0.0;95.2
11:38:28.107477;1573;141064;115401;129256;179028;524159;524159;67.0;0.0;95.2
11:38:28.117297;1574;141424;115467;129307;179541;524159;524159;67.0;0.0;95.2
11:38:28.127281;1575;141791;115525;129340;180061;524159;524159;67.0;0.0;95.2
11:38:28.297820;1576;142127;115575;129373;180568;524159;524159;68.0;0.0;95.2
11:38:28.307562;1577;142456;115632;129416;181071;524159;524159;68.0;0.0;95.2
11:38:28.317812;1578;142785;115692;129452;181552;524159;524159;68.0;0.0;95.2
11:38:28.327616;1579;143167;115753;129493;182072;524159;524159;68.0;0.0;95.2
11:38:28.327616;1580;143477;115780;129506;182529;524159;524159;68.0;854.1;95.2
11:38:28.498391;1581;143194;115623;129374;182351;524159;524159;68.0;0.0;95.2
11:38:28.507461;1582;142298;115399;129226;181478;524159;524159;68.0;0.0;95.2
11:38:28.514957;1583;141501;115319;129175;180635;524159;524159;68.0;0.0;95.2
11:38:28.521952;1584;141093;115331;129187;180161;524159;524159;68.0;0.0;95.2
11:38:28.529956;1585;141023;115381;129228;180075;524159;524159;68.0;0.0;95.2
11:38:28.698545;1586;141210;115453;129279;180263;524159;524159;68.0;0.0;95.2
11:38:28.707555;1587;141395;115495;129297;180464;524159;524159;68.0;0.0;95.2
11:38:28.712562;1588;141413;115482;129293;180531;524159;524159;68.0;0.0;95.2
11:38:28.717591;1589;141389;115484;129286;180539;524159;524159;68.0;0.0;95.2
11:38:28.727331;1590;141416;115497;129300;180611;524159;524159;68.0;0.0;95.2
11:38:28.898615;1591;141575;115550;129341;180823;524159;524159;68.0;0.0;95.2
11:38:28.907408;1592;141830;115611;129384;181144;524159;524159;68.0;0.0;95.2
11:38:28.907408;1593;142136;115682;129427;181528;524159;524159;68.0;0.0;95.2
11:38:28.917304;1594;142437;115735;129465;181918;524159;524159;68.0;0.0;95.2
11:38:28.927750;1595;142738;115785;129495;182324;524159;524159;68.0;0.0;95.2
11:38:29.098783;1596;143016;115828;129526;182723;524159;524159;68.0;0.0;95.2
11:38:29.107325;1597;143283;115870;129541;183102;524159;524159;68.0;0.0;95.2
11:38:29.107325;1598;143567;115919;129586;183496;524159;524159;68.0;0.0;95.2
11:38:29.117400;1599;143859;115978;129625;183889;524159;524159;68.0;0.0;95.2
11:38:29.127288;1600;144195;116046;129662;184339;524159;524159;68.0;831.8;95.2
11:38:29.298992;1601;144528;116094;129707;184788;524159;524159;68.0;0.0;95.2
11:38:29.307528;1602;144493;115997;129623;184851;524159;524159;68.0;0.0;95.2
11:38:29.312533;1603;143669;115761;129453;183999;524159;524159;68.0;0.0;95.2
11:38:29.317585;1604;142658;115622;129356;182874;524159;524159;68.0;0.0;95.2
11:38:29.327297;1605;142029;115602;129357;182084;524159;524159;68.0;0.0;95.2
11:38:29.499009;1606;141774;115627;129377;181689;524159;524159;69.0;0.0;95.2
11:38:29.507543;1607;141836;115697;129426;181665;524159;524159;69.0;0.0;95.2
11:38:29.507543;1608;141999;115744;129450;181780;524159;524159;69.0;0.0;95.2
11:38:29.517277;1609;142017;115736;129455;181783;524159;524159;69.0;0.0;95.2
11:38:29.527713;1610;141918;115712;129434;181657;524159;524159;69.0;0.0;95.2
11:38:29.698840;1611;141838;115718;129437;181561;524159;524159;69.0;0.0;95.2
11:38:29.707387;1612;141904;115756;129461;181598;524159;524159;69.0;0.0;95.2
11:38:29.717330;1613;142073;115794;129494;181756;524159;524159;69.0;0.0;95.2
11:38:29.717330;1614;142315;115853;129531;182006;524159;524159;69.0;0.0;95.2
11:38:29.727594;1615;142585;115904;129566;182301;524159;524159;69.0;0.0;95.2
11:38:29.899330;1616;142852;115953;129597;182617;524159;524159;69.0;0.0;95.2
11:38:29.907351;1617;143116;115991;129628;182910;524159;524159;69.0;0.0;95.2
11:38:29.907351;1618;143339;116027;129650;183200;524159;524159;69.0;0.0;95.2
11:38:29.917376;1619;143578;116066;129670;183506;524159;524159;69.0;745.7;95.2
11:38:29.927249;1620;143823;116114;129704;183815;524159;524159;69.0;0.0;95.2
11:38:30.099475;1621;144113;116177;129743;184174;524159;524159;69.0;0.0;95.2
11:38:30.107495;1622;144418;116228;129787;184553;524159;524159;69.0;0.0;95.2
11:38:30.107495;1623;144751;116287;129820;184969;524159;524159;69.0;0.0;95.2
11:38:30.117273;1624;145036;116307;129837;185334;524159;524159;69.0;0.0;95.2
11:38:30.127257;1625;144663;116122;129685;184984;524159;524159;69.0;0.0;95.2
11:38:30.299735;1626;143594;115882;129523;183771;524159;524159;69.0;0.0;95.2
11:38:30.307273;1627;142597;115793;129458;182541;524159;524159;69.0;0.0;95.2
11:38:30.317431;1628;142053;115785;129470;181767;524159;524159;69.0;0.0;95.2
11:38:30.327535;1629;141891;115825;129498;181427;524159;524159;69.0;0.0;95.2
11:38:30.332542;1630;142023;115888;129538;181437;524159;524159;69.0;0.0;95.2
11:38:30.499954;1631;142131;115911;129554;181470;524159;524159;69.0;0.0;95.2
11:38:30.507513;1632;142045;115885;129535;181327;524159;524159;69.0;0.0;95.2
11:38:30.517683;1633;141875;115856;129507;181079;524159;524159;69.0;0.0;95.2
11:38:30.517683;1634;141781;115855;129519;180899;524159;524159;69.0;0.0;95.2
11:38:30.527621;1635;141842;115893;129542;180911;524159;524159;69.0;0.0;95.2
11:38:30.700448;1636;141999;115935;129573;181043;524159;524159;69.0;0.0;95.2
11:38:30.707493;1637;142240;115991;129608;181266;524159;524159;69.0;0.0;95.2
11:38:30.717396;1638;142492;116037;129641;181544;524159;524159;69.0;0.0;95.2
11:38:30.727601;1639;142740;116083;129674;181808;524159;524159;69.0;800.3;95.2
11:38:30.727601;1640;142966;116112;129699;182078;524159;524159;69.0;0.0;95.2
11:38:30.900605;1641;143168;116153;129721;182333;524159;524159;69.0;0.0;95.2
11:38:30.907654;1642;143376;116195;129756;182571;524159;524159;69.0;0.0;95.2
11:38:30.917462;1643;143611;116244;129792;182848;524159;524159;69.0;0.0;95.2
11:38:30.927506;1644;143889;116308;129832;183158;524159;524159;69.0;0.0;95.2
11:38:30.932514;1645;144196;116369;129882;183510;524159;524159;69.0;0.0;95.2
11:38:31.101060;1646;144298;116336;129859;183636;524159;524159;69.0;0.0;95.2
11:38:31.107588;1647;143645;116135;129698;182833;524159;524159;69.0;0.0;95.2
11:38:31.117359;1648;142637;115965;129600;181501;524159;524159;69.0;0.0;95.2
11:38:31.117359;1649;141881;115921;129581;180402;524159;524159;69.0;0.0;95.2
11:38:31.127623;1650;141583;115942;129605;179817;524159;524159;69.0;0.0;95.2
11:38:31.301705;1651;141661;116012;129656;179695;524159;524159;69.0;0.0;95.2
11:38:31.307742;1652;141845;116063;129687;179756;524159;524159;69.0;0.0;95.2
11:38:31.317279;1653;141841;116052;129676;179669;524159;524159;69.0;0.0;95.2
11:38:31.317279;1654;141676;116015;129653;179378;524159;524159;69.0;0.0;95.2
11:38:31.327505;1655;141551;116008;129648;179111;524159;524159;69.0;0.0;95.2
