224
228
223
220
225
229
227
223
220
216
206
203
206
206
202
202
205
205
200
199
204
203
198
203
218
238
264
283
271
242
213
180
159
177
198
207
210
205
207
209
207
204
209
212
208
207
212
214
210
211
217
219
215
215
222
223
219
222
228
229
226
229
235
237
235
240
246
247
247
252
259
258
257
262
265
263
260
262
262
253
243
240
236
226
220
220
217
211
209
212
213
209
209
214
216
212
212
219
219
216
218
223
220
221
227
226
223
227
232
230
228
231
236
233
231
235
238
236
234
238
242
241
239
242
245
243
242
247
248
244
245
250
250
247
248
253
254
250
252
257
256
253
256
260
259
257
259
264
263
260
263
267
266
264
267
271
269
267
271
273
272
270
274
277
273
274
281
277
277
281
282
278
279
284
287
285
288
293
291
288
293
298
300
298
302
309
310
302
299
298
292
288
291
295
292
292
296
298
296
293
298
301
298
305
325
353
382
383
363
336
303
265
270
297
307
310
313
312
310
312
316
316
313
316
321
320
317
320
325
323
325
329
326
324
328
334
331
331
336
339
337
337
343
346
345
347
354
357
356
359
364
367
366
367
371
372
367
366
367
361
349
342
339
331
322
319
319
314
309
310
314
311
307
311
315
312
309
313
314
310
309
314
317
313
313
317
317
314
314
318
319
315
315
320
317
318
322
321
318
319
323
323
320
321
324
322
317
320
324
321
319
321
325
322
319
323
326
323
321
324
327
323
322
327
328
323
322
326
327
323
322
327
328
324
324
327
326
323
324
329
328
325
326
330
328
324
326
330
327
325
328
331
327
325
328
332
328
327
338
337
337
343
349
348
344
348
349
343
341
342
337
327
325
328
329
325
325
330
329
325
326
330
331
338
364
404
417
384
355
335
303
277
301
329
332
330
334
335
333
332
336
340
336
335
339
341
337
338
342
344
341
341
346
347
344
344
350
350
347
350
356
356
356
364
365
367
375
372
368
369
377
382
378
378
381
384
380
375
373
369
356
348
346
341
332
327
328
326
319
318
321
320
316
318
330
322
309
311
319
320
316
318
323
322
318
320
325
323
320
321
325
323
321
323
324
320
319
324
326
324
326
320
317
316
318
322
319
318
323
323
318
319
322
322
319
320
323
322
319
321
325
324
325
327
319
315
317
321
323
320
318
321
325
323
320
324
325
321
319
322
325
321
323
330
329
326
334
337
328
324
330
340
341
332
328
327
323
318
319
322
322
318
320
324
323
318
319
323
320
320
365
387
389
378
351
313
278
270
298
319
323
327
330
328
327
332
332
330
329
334
336
339
337
332
331
331
336
341
341
338
340
345
344
341
346
351
349
348
351
357
356
355
361
365
365
364
372
383
369
361
369
374
370
366
366
360
347
340
336
329
320
316
317
314
307
310
308
303
303
307
306
303
305
310
308
305
307
312
309
306
308
312
309
308
311
312
310
308
312
313
308
308
311
312
308
307
312
312
308
308
312
312
308
308
312
313
308
309
312
311
306
308
312
310
307
308
313
310
308
312
314
310
309
312
314
312
312
318
317
317
321
322
319
320
327
331
325
320
318
315
309
309
314
314
309
311
316
314
310
312
316
314
313
323
346
368
383
371
348
325
294
268
284
310
317
322
324
321
319
323
326
322
322
327
328
324
323
328
329
325
327
332
332
328
330
335
335
331
333
338
337
335
345
345
344
349
355
355
355
361
365
363
361
366
368
364
360
359
355
343
333
329
324
315
311
312
309
303
302
305
305
301
301
306
305
302
303
307
307
304
306
310
308
304
307
311
308
306
309
313
310
307
310
314
311
308
312
314
310
308
312
314
309
308
312
314
309
313
312
308
309
313
313
309
311
315
313
310
311
316
314
310
313
317
314
311
315
316
313
311
316
317
314
311
316
320
315
313
317
319
316
315
320
320
317
316
319
320
317
317
323
323
317
318
322
322
318
320
324
322
319
321
324
323
320
326
330
326
322
328
331
329
333
338
338
336
335
333
323
319
323
324
320
320
325
326
322
321
325
325
320
325
340
358
385
404
393
367
338
306
289
307
321
329
332
327
324
328
332
329
326
329
333
330
328
332
336
332
330
335
337
334
334
339
342
338
337
342
344
342
343
349
350
349
357
359
356
362
368
369
367
370
374
372
368
369
370
363
353
348
344
334
325
322
320
314
310
313
313
308
307
311
313
308
307
312
312
308
308
313
313
309
309
314
314
310
312
315
314
310
312
317
317
312
314
318
315
313
316
320
317
315
318
320
317
315
318
320
315
319
320
317
316
320
321
318
318
323
323
317
318
322
322
318
319
323
322
319
321
325
323
319
321
325
323
320
323
325
323
320
323
326
324
321
325
327
324
322
326
328
324
323
327
328
324
323
328
327
323
323
328
328
324
323
328
327
324
325
329
326
323
325
327
324
326
329
329
329
335
338
336
337
345
348
344
342
344
344
339
334
330
327
321
320
324
325
321
321
325
325
321
321
330
339
354
388
409
391
360
336
305
285
303
323
331
329
325
327
331
328
326
330
333
329
328
332
334
331
330
335
337
334
334
338
340
336
342
344
341
343
349
349
347
350
356
358
356
360
367
368
367
371
375
372
370
372
375
369
363
359
354
343
333
330
327
319
314
316
317
311
309
312
313
309
309
313
313
310
310
314
314
309
311
315
314
310
312
316
315
311
313
317
315
312
314
319
316
313
316
319
314
317
320
316
314
318
319
315
314
318
319
315
314
318
320
316
315
319
320
316
318
321
320
316
317
321
320
315
317
321
319
315
318
321
319
316
318
322
319
317
321
323
319
317
321
324
320
318
322
324
319
318
323
325
320
320
324
325
321
321
325
325
320
322
325
322
328
336
338
338
339
340
339
341
344
345
338
329
326
327
322
319
322
326
322
320
324
325
320
319
330
347
366
395
408
383
348
323
293
285
308
326
333
331
327
331
335
334
329
331
336
334
330
334
339
339
343
341
334
332
334
340
344
340
339
345
348
345
352
354
353
353
360
364
363
366
373
375
372
373
379
379
374
376
378
372
364
361
362
342
326
325
327
322
317
317
319
315
310
314
316
313
312
316
317
315
314
318
321
323
318
311
314
314
315
320
321
316
317
322
322
320
320
322
320
317
319
323
321
317
319
324
319
328
323
314
313
319
322
320
318
322
324
321
320
322
324
321
320
323
324
320
318
324
332
320
312
318
321
318
319
324
324
320
322
327
324
319
321
327
325
320
322
325
329
323
317
320
319
320
327
333
333
336
340
340
337
338
342
341
332
325
326
329
322
311
321
318
318
322
324
321
321
329
345
367
387
384
360
335
319
291
272
296
322
330
327
325
329
332
329
328
331
334
330
328
332
335
334
333
340
347
331
327
335
338
336
339
343
343
342
345
351
350
349
352
357
358
359
363
376
366
358
365
373
370
367
370
371
364
349
343
333
325
322
321
320
312
305
306
304
305
308
308
304
304
310
310
306
307
311
311
308
316
313
305
305
310
315
312
309
312
316
314
311
314
317
313
310
313
317
317
314
308
309
309
309
314
315
310
310
316
316
311
311
315
316
312
314
318
319
314
318
323
305
310
317
316
312
315
319
318
314
316
319
317
314
317
319
317
317
326
317
309
310
319
323
323
323
328
332
331
329
333
336
333
332
334
329
318
315
320
319
317
321
314
310
309
315
321
319
323
343
366
379
365
347
330
305
274
280
314
325
322
325
328
326
325
329
325
325
331
332
328
332
340
329
323
327
334
334
331
334
338
338
336
339
345
344
342
346
352
351
351
356
362
361
361
366
370
369
367
371
372
367
362
360
354
341
333
330
326
316
313
320
315
299
299
306
306
303
303
306
306
302
303
307
306
302
305
308
306
308
311
308
306
309
311
308
307
310
313
308
306
311
313
308
307
310
311
306
306
310
311
306
307
311
310
307
307
311
309
306
306
311
310
306
308
311
309
306
309
312
309
306
310
313
310
307
311
313
310
309
313
314
311
310
314
315
311
310
314
315
311
312
316
312
312
316
315
312
314
317
317
315
319
324
321
319
325
329
327
327
332
334
329
321
320
318
312
309
313
315
312
311
314
315
311
310
315
323
332
354
387
390
363
340
319
284
276
301
318
319
315
316
320
320
316
318
322
320
317
321
325
321
320
323
327
325
323
330
328
328
332
335
332
332
337
340
338
339
346
349
347
349
357
359
357
359
365
365
362
363
367
364
355
352
349
340
328
324
322
316
310
310
311
306
302
305
308
305
303
306
309
306
305
309
311
307
306
312
312
306
307
312
313
309
310
315
314
311
311
315
315
314
317
315
311
314
319
316
312
315
318
316
312
315
318
315
312
315
318
316
313
317
319
315
314
318
320
315
315
319
320
315
315
320
320
317
317
322
320
316
316
322
321
317
319
324
322
318
321
325
322
319
321
326
322
321
323
327
323
321
325
327
323
322
326
323
322
326
328
324
325
332
336
334
338
345
341
337
342
348
345
338
334
331
325
320
321
325
323
320
322
326
322
319
322
330
337
355
390
409
388
360
338
304
283
304
325
329
326
324
328
329
325
325
330
330
327
328
334
332
328
330
335
334
330
332
338
336
334
342
340
338
342
346
344
344
349
354
353
353
359
363
362
363
368
371
368
368
371
370
363
358
356
348
335
329
327
321
313
311
313
310
305
305
309
307
304
307
311
308
305
308
311
308
305
308
311
308
306
310
313
309
308
313
315
311
310
314
316
312
312
316
317
312
317
316
312
312
316
315
311
312
316
315
311
313
317
316
312
315
318
316
312
315
319
316
314
317
318
315
313
318
319
316
314
319
321
316
315
319
321
317
317
320
321
317
320
322
321
317
319
323
321
317
319
323
321
318
320
324
322
320
322
324
321
320
322
320
319
322
325
321
321
324
325
322
322
325
327
327
331
340
341
340
340
343
344
340
338
340
337
326
320
323
320
317
320
323
321
319
321
324
320
319
329
348
372
401
403
380
348
317
285
293
314
324
329
330
324
323
329
329
325
325
331
332
327
328
334
334
329
336
335
332
334
339
339
336
339
344
342
341
345
350
349
349
355
360
358
359
365
370
368
368
372
374
371
370
371
368
358
351
348
341
328
323
322
318
311
309
312
309
305
306
311
308
305
306
310
307
304
308
311
307
304
308
312
309
306
310
313
309
308
312
314
310
314
315
310
311
315
314
310
312
316
315
311
312
316
315
311
312
316
315
311
313
318
316
312
315
319
316
313
315
320
316
314
317
319
316
314
318
320
315
314
319
321
317
316
321
321
318
318
322
322
317
318
323
321
318
318
323
321
318
319
324
322
319
322
323
320
323
326
323
320
323
326
323
322
325
326
323
325
333
338
336
337
343
344
341
342
345
342
335
333
330
324
319
320
326
324
319
321
325
323
320
322
328
335
349
381
411
399
367
342
313
278
292
320
331
327
324
327
330
326
325
329
331
327
327
332
332
328
334
335
332
333
338
337
335
337
342
341
339
342
348
346
345
349
356
354
354
360
366
365
364
369
373
370
369
372
373
367
362
358
351
340
331
328
323
314
310
311
309
305
304
308
307
302
304
309
307
304
306
310
308
305
308
312
310
307
310
313
311
310
313
315
309
313
314
309
310
314
316
311
309
314
315
311
309
313
314
310
311
315
314
311
311
316
314
309
313
317
315
312
317
326
313
304
309
315
314
312
315
319
315
312
316
319
316
315
318
320
314
314
319
320
316
316
321
321
317
318
322
321
317
318
324
323
320
324
323
316
322
333
337
335
334
337
339
338
340
340
332
322
321
324
321
318
321
323
320
319
323
325
321
329
344
359
383
397
382
354
321
289
275
296
320
328
332
331
328
330
334
333
329
332
337
335
332
335
342
344
330
331
338
337
337
342
345
342
342
347
350
347
355
358
355
357
364
368
366
368
374
378
382
378
374
373
372
373
374
367
356
351
346
335
326
324
325
319
313
314
316
312
310
319
322
305
302
311
317
314
312
316
317
314
313
317
319
316
320
321
311
308
312
318
317
314
314
319
318
314
315
319
317
314
315
320
312
315
318
318
321
314
312
311
314
317
318
314
314
319
320
316
315
321
322
318
318
321
325
324
313
316
319
316
316
320
320
318
320
323
320
317
320
324
321
319
326
331
317
313
320
325
322
320
326
332
330
333
341
340
334
335
341
342
335
334
331
317
312
317
321
318
319
322
321
319
320
327
341
363
390
394
370
343
328
292
267
289
320
329
325
324
327
330
325
324
329
332
328
326
331
333
331
338
332
327
326
330
336
337
335
336
342
342
339
342
348
348
346
351
358
358
356
362
368
367
372
370
366
365
365
370
371
362
350
344
333
324
322
320
312
308
312
309
303
301
306
307
302
302
306
305
303
306
315
304
296
301
309
308
304
306
309
307
306
309
312
308
306
309
311
307
305
309
312
307
305
310
311
307
306
309
311
310
314
308
304
303
306
312
312
307
308
313
313
308
309
314
308
310
314
313
310
313
316
313
309
312
315
312
310
313
315
312
310
314
316
312
312
316
316
313
315
320
321
316
317
323
322
319
321
329
331
326
322
321
315
309
311
315
313
310
312
315
311
308
312
317
314
312
325
348
368
383
372
348
323
294
267
280
306
317
321
317
317
322
322
319
320
324
324
320
322
326
325
322
324
329
328
324
327
330
329
328
332
336
334
332
336
341
340
340
346
351
349
350
357
361
360
360
365
365
360
357
360
356
345
337
333
324
314
309
309
305
301
301
304
300
296
298
302
301
297
299
303
301
301
305
302
299
304
308
304
302
306
308
304
302
306
307
303
303
307
308
304
304
309
308
304
305
310
309
305
306
311
309
305
307
311
309
307
308
312
310
307
310
314
311
309
312
316
313
311
315
317
314
312
316
318
314
314
318
319
314
314
319
320
314
312
319
316
316
320
319
315
317
323
324
322
322
326
326
325
328
332
331
332
337
339
331
324
324
323
317
316
321
322
319
318
322
323
319
319
323
328
334
354
388
407
387
362
341
304
278
300
324
328
323
324
328
327
323
326
330
327
325
329
332
329
327
331
334
331
330
337
335
334
338
340
337
338
344
346
344
344
351
353
352
355
363
364
363
365
372
371
368
369
372
369
363
360
357
346
335
331
328
319
312
313
314
309
306
309
311
306
304
308
310
306
305
309
310
306
307
311
311
306
307
312
312
308
309
313
312
308
310
315
313
311
315
313
309
311
316
312
310
313
316
313
309
314
316
313
309
314
317
313
311
316
317
313
312
317
317
313
313
318
318
314
315
319
318
315
316
320
318
314
317
321
318
316
319
322
320
315
318
322
319
317
320
322
319
318
322
323
321
323
327
327
324
325
330
328
331
338
340
332
327
326
322
316
317
322
320
316
318
323
319
316
318
321
321
325
342
369
398
399
380
356
323
283
286
313
322
323
325
327
323
322
327
328
324
324
329
330
325
326
330
329
327
329
335
334
331
334
339
337
335
338
343
342
341
345
349
349
349
359
358
358
365
369
367
366
370
372
368
364
364
358
347
339
335
328
317
313
314
311
306
305
308
307
303
304
309
307
302
305
309
308
304
307
311
308
305
307
312
309
306
310
312
309
307
312
314
309
307
312
314
309
308
313
314
311
310
314
314
310
310
314
313
311
316
313
310
311
315
313
310
312
316
314
311
314
318
315
312
316
318
315
313
316
318
314
313
317
319
316
315
318
319
316
316
320
319
315
316
321
321
317
318
323
321
316
318
322
321
318
320
323
322
318
321
324
321
317
321
325
324
323
326
327
326
326
331
332
334
341
339
329
322
323
321
317
317
322
322
318
319
323
323
318
319
323
324
331
352
387
408
390
363
341
304
275
296
322
325
323
326
328
325
323
327
329
326
324
329
332
328
327
333
334
330
330
335
336
333
334
339
340
338
340
345
346
343
346
352
353
352
364
364
363
367
372
371
368
372
376
371
366
364
359
348
339
336
330
320
313
315
314
308
305
309
309
305
305
309
308
304
305
310
310
305
307
312
310
306
308
312
310
307
310
313
311
308
311
314
310
308
311
313
309
308
311
313
310
308
312
313
310
309
313
314
308
312
312
308
310
314
313
310
312
315
313
308
311
315
314
310
312
315
314
311
314
317
314
312
315
318
314
313
317
319
315
313
317
319
315
314
319
320
316
315
320
319
315
315
320
320
316
317
321
321
320
321
324
324
326
330
331
329
330
336
338
329
320
319
314
312
316
318
314
314
318
319
314
313
317
323
332
354
388
406
381
351
328
291
268
294
320
324
321
322
325
323
320
322
327
325
322
324
328
326
323
328
332
330
328
333
336
333
333
336
339
338
339
344
346
344
346
354
356
354
356
363
366
364
366
372
372
369
376
373
365
362
360
351
343
339
325
314
309
312
313
309
305
310
312
307
306
310
313
309
307
313
313
309
309
315
317
312
312
322
322
307
306
314
315
312
313
318
316
312
315
319
317
313
316
320
317
312
315
320
319
321
313
313
311
311
317
320
315
315
320
322
316
320
323
320
320
323
325
320
320
323
324
327
323
319
319
319
322
326
326
321
322
327
325
323
326
329
327
323
327
332
330
331
323
324
323
325
334
338
332
332
339
343
337
336
345
347
341
337
339
334
326
330
330
321
319
324
329
328
324
327
330
328
325
339
394
401
387
366
336
300
278
299
322
320
326
332
331
329
333
337
333
333
338
339
334
334
339
339
337
337
344
348
347
336
339
342
341
345
351
351
348
352
358
359
356
361
367
367
368
372
378
382
374
371
375
374
371
372
367
355
347
343
336
326
321
320
317
311
315
318
303
299
306
307
304
307
311
309
307
309
313
311
307
310
314
312
311
317
320
306
303
310
314
313
310
314
314
311
309
312
314
310
310
315
314
310
310
315
318
315
305
307
310
309
311
315
314
310
312
317
314
310
313
318
318
316
319
322
319
318
326
321
311
318
322
320
319
324
327
324
325
333
334
326
319
319
317
311
312
317
318
313
315
319
317
314
316
323
325
319
340
371
385
365
344
327
297
266
282
315
322
320
324
327
325
322
327
329
326
325
330
330
327
328
333
333
329
330
336
336
333
335
340
341
344
342
340
341
346
351
352
351
357
363
364
361
367
372
369
368
371
373
367
359
357
351
338
328
325
322
314
309
310
309
303
303
306
306
301
301
306
305
301
304
308
307
302
304
308
307
304
307
311
308
305
308
311
307
303
307
310
307
303
307
309
305
303
308
309
306
308
310
306
305
309
309
305
305
310
310
305
306
310
309
305
307
313
312
310
312
314
315
314
315
320
319
318
325
328
320
311
311
311
306
304
309
311
307
307
311
314
309
308
312
313
316
329
356
384
386
365
345
319
275
269
298
314
314
316
319
318
314
317
320
316
320
323
320
318
322
326
322
321
327
328
325
326
331
333
330
330
335
338
335
337
343
345
344
348
354
355
354
357
364
364
361
364
367
363
356
352
349
338
328
323
321
314
307
308
308
303
300
304
306
302
299
303
305
301
301
305
306
301
304
308
309
304
304
309
305
306
311
309
306
307
312
310
306
308
312
311
308
311
314
311
308
312
314
310
308
312
314
310
308
312
313
310
310
315
316
311
310
315
315
312
312
316
315
311
312
316
315
312
314
318
316
311
315
318
316
313
317
324
322
317
321
326
323
321
326
330
330
329
326
317
313
316
317
312
313
317
317
313
313
317
317
313
313
325
339
360
393
404
379
348
322
289
282
303
320
326
323
318
322
325
322
319
324
326
322
321
325
329
325
324
328
331
328
328
332
333
330
332
338
339
336
339
345
346
344
347
353
355
354
358
365
364
368
372
370
367
369
369
362
352
347
341
331
322
319
317
310
306
308
309
304
302
306
307
304
303
307
308
305
305
308
307
304
306
310
309
305
306
311
309
305
307
311
309
307
308
312
310
306
309
313
309
306
310
313
309
307
311
313
309
308
312
314
308
308
314
310
310
315
314
311
311
315
314
311
313
317
316
312
314
318
316
311
314
318
315
313
315
319
315
313
316
319
316
314
318
320
316
315
319
321
317
317
321
322
318
317
322
321
318
318
322
322
318
318
322
322
320
323
328
324
323
328
331
329
327
332
338
337
328
326
319
315
318
321
317
316
320
322
318
316
320
321
318
324
342
368
397
405
387
360
327
289
288
312
321
326
330
326
322
324
329
327
324
328
332
329
327
331
335
332
330
335
337
334
333
338
340
337
336
341
345
342
343
349
351
349
351
359
361
359
362
369
368
369
375
374
369
369
369
361
351
344
340
331
321
319
318
313
308
310
312
308
305
309
310
307
305
309
311
307
307
312
312
307
308
312
312
309
309
313
311
307
309
313
312
308
310
314
312
309
311
314
312
309
312
316
313
309
313
316
312
310
314
317
313
312
317
312
312
315
316
313
313
316
316
313
313
317
317
314
315
318
317
314
315
320
318
315
316
320
318
314
318
321
319
316
319
322
318
316
319
321
317
316
320
322
317
316
320
323
319
318
323
323
319
319
324
324
320
321
329
329
324
326
334
336
331
333
341
342
337
335
328
320
322
323
321
319
322
325
321
319
322
324
320
321
334
352
379
407
403
376
342
308
279
292
313
323
328
327
322
323
328
327
322
326
331
330
327
329
333
331
328
331
335
333
331
335
340
338
337
341
344
342
341
347
350
347
348
355
359
358
360
367
369
370
375
375
370
370
373
367
355
350
346
336
325
321
321
316
309
310
313
310
313
307
302
300
301
305
309
306
304
308
311
308
307
311
312
309
308
312
313
308
308
312
313
308
310
315
314
310
312
315
313
309
312
315
315
316
317
309
304
305
310
315
312
309
316
313
312
316
317
313
312
316
317
312
311
316
318
313
313
317
318
314
317
329
318
307
311
318
319
315
316
321
320
316
318
322
320
319
321
325
321
318
321
326
322
319
322
325
322
326
331
326
323
325
334
339
335
335
341
343
337
335
335
327
320
321
325
323
321
329
330
314
315
321
326
338
366
400
408
384
356
332
293
273
304
330
330
328
332
334
330
329
338
341
326
323
332
335
332
333
339
341
338
339
343
343
341
343
349
347
345
347
354
358
356
349
353
358
360
365
371
370
371
377
380
377
376
380
382
377
372
374
345
336
337
334
324
321
323
321
315
314
317
317
312
314
320
322
316
309
314
314
314
317
320
317
316
319
322
319
316
321
324
326
322
316
318
317
316
320
323
318
317
322
322
318
316
320
322
317
317
322
321
319
325
320
315
312
317
321
319
316
320
324
321
317
323
321
318
321
324
322
324
319
318
318
318
322
324
320
320
324
325
320
321
327
329
327
329
332
334
333
333
339
345
333
330
335
331
324
321
322
319
315
318
322
318
316
319
322
319
317
322
335
355
379
391
378
352
317
290
272
285
312
326
326
323
326
330
328
326
330
331
327
328
334
340
332
324
330
332
331
335
340
338
336
338
343
344
342
345
350
348
349
360
365
352
351
362
368
367
365
370
372
368
367
369
364
354
346
343
334
323
319
318
313
305
305
308
310
308
297
299
301
300
302
304
302
300
304
307
304
302
306
307
305
309
311
308
310
314
305
299
303
309
309
304
304
309
309
305
304
310
310
304
306
309
308
306
307
311
313
301
300
308
309
306
308
311
309
307
310
312
309
308
312
313
309
307
313
316
312
313
319
325
313
309
318
323
321
325
330
326
319
314
314
312
308
315
314
310
312
315
313
311
320
315
307
321
352
380
379
356
338
319
284
262
289
315
317
315
321
322
317
318
323
323
319
320
326
326
327
328
322
321
322
327
333
331
328
331
337
336
334
339
345
343
341
348
353
352
352
358
363
363
363
368
371
367
367
373
372
359
357
349
336
329
326
320
311
309
312
309
305
305
309
306
301
303
307
305
301
304
308
305
301
305
308
305
302
306
309
305
304
309
310
306
305
309
310
306
306
310
310
305
305
310
310
305
306
309
307
305
306
310
308
304
306
310
307
304
308
311
308
304
307
307
305
308
311
307
305
309
310
307
305
310
311
307
306
311
312
307
307
312
312
309
309
314
313
309
309
315
314
313
316
320
317
316
320
324
322
320
324
331
327
319
317
316
309
306
310
312
308
308
311
312
308
307
311
311
310
320
344
371
389
378
359
333
298
285
307
312
314
317
315
311
314
319
317
314
317
320
319
316
320
323
320
319
323
326
323
323
328
331
328
328
333
336
333
333
339
342
340
343
350
354
352
355
362
363
360
362
367
365
360
359
359
350
338
332
329
320
311
311
311
306
301
304
306
301
298
302
305
299
304
305
302
300
305
306
301
302
306
307
302
304
308
308
304
305
309
308
304
305
310
309
305
308
311
309
305
308
312
309
306
309
312
308
306
311
314
309
307
312
314
310
309
314
315
311
311
315
316
311
312
316
316
312
314
318
318
315
316
320
318
315
317
319
317
319
323
320
316
320
323
320
317
322
325
321
318
323
326
321
321
325
326
321
321
325
326
321
322
327
326
323
324
328
327
323
325
329
327
323
325
332
332
328
330
335
336
335
336
341
341
340
342
340
333
326
326
326
322
322
326
327
323
323
327
328
322
334
348
368
404
417
397
366
336
300
294
313
327
334
333
328
329
333
331
328
332
334
333
330
333
337
334
333
337
339
336
336
341
343
339
340
345
347
344
345
353
355
350
353
360
363
361
364
371
372
371
374
380
380
376
377
382
375
366
362
358
347
337
332
330
317
318
319
318
321
313
309
307
307
314
315
311
311
315
314
310
312
317
317
312
313
318
316
314
316
320
318
315
316
325
324
310
310
318
317
314
318
320
318
316
319
321
316
316
319
321
317
318
320
321
318
317
321
322
319
320
324
325
326
323
316
316
314
316
321
317
318
323
320
316
320
324
321
318
321
323
321
318
321
324
320
318
322
325
324
328
323
320
322
327
336
341
336
333
340
342
339
335
336
329
319
319
323
322
317
319
323
321
317
321
325
322
325
344
373
394
388
367
344
316
279
277
307
322
322
328
336
324
322
327
326
325
330
331
328
328
333
332
329
330
337
336
333
336
340
339
336
341
346
345
344
347
354
352
351
356
363
362
362
369
373
370
369
374
376
369
366
366
360
349
338
335
328
317
312
313
310
304
303
306
305
301
301
304
303
299
300
304
302
299
301
305
300
302
306
302
300
304
308
304
302
306
308
303
301
305
306
303
302
306
307
302
302
306
306
301
301
306
305
300
301
304
303
299
301
304
302
298
301
305
302
299
302
305
303
300
303
306
303
300
304
306
303
301
306
308
303
303
307
308
304
304
308
309
305
305
309
305
307
311
309
305
306
311
311
306
308
313
310
306
310
314
312
312
317
324
323
323
326
327
327
329
332
330
322
315
313
312
307
307
311
313
309
308
312
313
307
311
326
344
368
395
391
365
335
304
277
288
306
317
321
317
313
316
320
317
315
319
321
320
322
325
321
321
326
328
325
325
330
332
329
329
335
337
334
336
342
343
341
345
352
353
352
356
364
364
362
368
370
368
365
368
370
363
353
348
344
333
323
321
319
311
307
309
309
305
303
307
308
304
304
307
308
306
305
310
309
305
306
311
310
306
308
313
308
310
314
312
308
311
315
314
310
312
316
312
309
312
316
312
311
315
317
312
310
315
316
312
311
316
318
313
313
318
317
313
314
319
317
313
316
320
318
315
316
321
318
315
318
321
319
316
320
324
319
317
321
324
320
318
322
324
320
319
323
325
321
320
325
321
321
325
326
321
321
326
326
322
322
327
325
322
323
327
326
322
324
330
326
322
325
328
325
322
326
334
334
335
342
346
341
338
344
347
342
337
339
334
323
320
322
323
319
320
324
323
318
319
322
324
328
344
377
409
408
385
360
325
283
288
315
325
325
327
325
322
325
328
325
323
328
330
327
325
330
332
330
329
335
336
331
332
337
340
337
338
344
344
341
344
351
352
348
352
360
362
360
363
370
371
369
373
375
372
367
368
366
356
346
340
336
324
317
317
316
309
307
309
309
305
305
309
308
303
304
309
304
305
309
309
305
307
312
311
307
308
312
308
306
309
313
309
306
310
313
310
307
311
313
310
308
312
314
311
310
313
314
311
310
313
314
309
309
314
314
310
311
316
315
312
312
316
314
310
313
316
313
310
314
317
314
311
315
319
317
314
317
320
317
314
321
317
315
319
320
316
316
321
321
317
318
322
322
317
318
322
322
318
319
324
323
319
321
323
321
319
322
326
323
322
329
337
336
335
339
341
341
339
343
342
335
328
324
323
318
317
322
323
318
317
321
321
317
318
329
343
363
398
414
391
357
328
292
282
322
329
327
323
325
329
326
324
328
330
327
325
331
333
330
329
334
337
333
332
336
340
336
337
343
345
341
343
349
351
348
350
357
359
357
360
368
371
369
372
377
376
372
375
378
371
364
359
355
342
331
328
326
318
311
313
313
307
305
308
310
305
303
308
305
305
310
309
305
306
311
312
308
308
312
311
308
309
314
312
308
309
314
312
308
311
314
311
308
312
314
311
308
314
323
314
303
308
312
309
308
312
314
311
311
315
315
311
313
317
318
312
313
318
317
313
314
319
317
313
315
318
317
314
318
322
320
316
323
325
325
318
315
315
316
323
326
322
324
334
338
337
335
338
341
340
340
341
337
326
322
325
323
318
322
327
325
320
321
327
329
328
330
356
384
398
383
360
331
298
274
290
317
327
331
333
330
328
333
333
331
331
336
340
340
330
329
333
333
336
341
341
341
346
345
343
345
351
351
349
354
359
358
356
362
369
371
377
375
370
372
375
381
383
379
376
377
372
362
353
349
343
332
326
326
324
317
314
319
319
319
309
307
309
310
312
315
315
313
315
318
316
313
317
320
319
315
318
321
317
315
321
330
315
307
317
315
315
320
322
317
315
320
321
316
316
321
320
315
316
322
321
316
320
329
316
310
316
323
320
315
318
321
320
317
319
322
320
317
320
324
321
319
322
324
325
322
316
318
317
319
323
323
319
320
328
331
332
334
339
336
332
336
342
340
331
327
324
319
314
321
323
321
312
313
315
315
319
329
344
368
388
377
349
326
305
276
276
304
323
325
320
321
325
326
322
323
327
327
324
325
329
327
324
326
332
332
328
330
335
334
331
334
339
337
338
348
342
335
338
347
354
352
354
359
363
362
362
367
369
366
365
368
366
350
345
337
325
317
317
312
304
302
305
302
296
297
301
299
295
298
302
298
295
298
302
300
297
301
304
301
299
303
306
302
301
305
307
303
301
305
307
302
300
304
305
301
300
305
304
301
302
305
305
300
300
305
304
300
303
305
303
301
303
306
303
302
307
303
301
305
307
304
302
306
308
302
302
307
307
302
301
306
306
301
300
305
305
301
302
306
307
304
305
310
310
306
308
315
314
313
318
319
312
303
302
303
300
297
301
305
300
299
302
304
301
299
304
313
322
343
377
384
358
333
313
276
262
288
309
312
308
314
314
310
311
317
315
312
316
320
318
316
319
323
321
319
323
328
325
323
327
331
329
329
334
336
334
335
343
345
344
346
352
355
354
357
363
363
360
360
365
361
354
351
349
339
328
323
322
312
305
306
307
303
299
303
305
301
299
302
306
303
300
306
307
302
306
308
304
304
308
310
307
306
309
309
305
307
312
310
305
308
312
311
307
310
314
311
308
310
313
310
306
310
313
310
307
310
314
309
307
311
314
311
309
312
315
311
309
313
316
310
310
316
315
311
311
316
315
313
314
316
316
313
314
319
316
313
316
318
315
317
321
320
314
316
321
318
315
318
320
318
316
320
322
318
316
321
322
319
320
321
321
319
324
331
329
326
331
337
335
334
338
341
338
330
325
324
319
315
319
321
318
316
318
321
318
315
322
337
353
382
408
397
367
337
305
282
295
314
325
326
321
326
326
320
320
325
325
322
326
330
327
324
326
331
331
328
331
334
333
331
335
339
338
336
340
346
343
343
349
354
351
352
360
363
362
362
367
370
366
366
369
367
359
353
351
343
331
323
323
317
310
308
310
305
300
301
305
303
299
302
307
305
301
303
307
301
305
309
305
303
307
309
305
304
309
311
307
304
308
309
307
306
310
310
307
307
312
312
307
308
311
310
306
308
313
311
306
309
313
310
308
311
315
312
309
313
315
312
310
313
316
312
309
314
316
313
312
316
316
312
312
317
317
312
312
316
315
313
313
316
313
315
318
316
313
314
318
316
314
317
320
317
314
318
321
318
316
318
322
318
317
324
327
321
320
330
334
329
328
334
338
335
333
331
325
316
315
318
318
316
317
321
319
315
318
322
318
317
330
352
379
403
399
375
343
305
276
293
314
321
325
327
321
326
327
322
321
327
330
325
325
330
330
327
328
333
334
330
331
338
338
335
336
342
341
339
343
349
347
345
351
358
358
358
363
368
367
368
372
375
371
369
371
369
360
350
347
339
328
321
321
317
310
309
312
309
304
304
310
309
304
305
310
308
305
308
313
306
310
313
310
308
312
314
310
308
312
314
311
309
313
315
312
310
315
316
311
310
315
316
312
312
316
317
312
313
317
316
311
313
319
317
313
314
320
317
313
315
319
316
314
317
320
317
316
319
322
319
317
321
322
320
319
323
323
319
318
324
325
320
320
326
321
321
325
325
321
322
327
325
321
323
326
324
322
326
332
332
331
335
341
342
341
343
347
343
340
340
339
329
321
324
326
321
320
324
325
321
320
324
325
321
332
355
385
410
403
378
346
307
276
294
319
324
327
331
327
325
327
330
327
325
329
332
330
332
335
331
331
336
338
334
334
339
341
338
338
344
346
344
346
352
353
352
355
362
364
364
368
374
375
373
376
380
378
374
374
375
365
355
350
344
334
326
324
324
316
313
316
316
311
308
313
315
311
310
314
315
311
311
315
315
312
312
315
316
313
313
317
312
315
319
316
313
314
318
316
313
317
320
317
314
317
320
316
313
317
319
315
313
317
318
314
314
318
319
315
313
318
318
313
315
319
319
315
315
319
317
314
316
321
318
315
317
320
319
316
317
321
318
316
320
322
318
316
320
322
318
317
321
323
320
319
324
319
318
322
324
319
319
326
328
327
330
336
338
336
337
342
340
335
334
336
329
319
318
319
316
314
318
322
318
316
319
321
316
323
343
373
402
406
382
351
315
275
279
309
320
322
326
326
320
320
325
326
321
323
328
327
323
326
331
329
326
329
333
332
335
339
337
336
340
345
342
341
347
351
349
350
357
362
361
362
369
373
370
370
376
377
372
370
371
366
354
346
343
334
323
320
319
314
307
308
311
307
303
306
310
306
303
306
311
307
306
309
312
309
307
310
313
311
308
311
313
309
308
314
315
311
310
313
309
310
314
313
308
309
314
313
309
310
314
312
309
311
315
312
308
312
316
312
310
313
316
312
309
313
315
311
310
313
316
312
312
316
316
313
313
317
317
313
314
318
318
314
315
319
318
315
316
320
319
315
317
320
318
316
318
321
318
316
319
324
322
323
333
331
334
339
340
336
336
340
337
329
324
320
317
312
312
317
316
314
314
318
317
311
313
326
344
371
406
409
377
341
308
274
278
303
319
324
320
316
320
323
320
317
322
325
322
319
324
327
324
323
329
331
326
326
333
334
331
332
337
338
336
339
344
344
347
353
355
353
358
366
366
365
370
373
370
368
372
374
367
358
354
348
335
325
322
318
310
305
307
306
300
300
304
304
301
301
305
304
301
303
307
307
303
304
309
307
304
306
310
308
305
309
311
308
305
308
312
308
305
309
314
310
307
311
313
308
307
312
309
308
313
312
307
308
313
313
309
310
315
314
309
311
316
315
311
314
317
314
310
312
316
314
311
313
317
315
312
316
318
315
314
317
318
316
314
319
319
316
314
319
321
317
316
320
320
316
316
321
322
321
325
333
333
331
335
338
337
335
337
337
332
325
320
315
312
314
316
315
312
315
317
313
310
322
341
366
404
420
395
351
316
278
272
296
313
321
320
315
317
321
321
318
318
324
322
319
322
328
326
323
326
331
330
329
330
334
333
332
336
339
338
337
343
346
345
345
353
358
355
357
365
368
365
368
374
375
372
375
371
362
355
351
341
328
324
320
312
306
305
309
304
300
304
306
302
300
303
305
302
301
305
308
304
302
307
309
305
304
309
311
306
307
311
310
307
307
311
312
307
306
312
312
307
308
312
310
306
308
313
310
306
309
314
309
307
308
311
309
307
312
311
310
313
315
311
310
315
316
312
311
316
316
311
311
316
315
312
313
318
317
313
315
319
318
313
316
319
318
314
317
321
317
314
321
327
326
325
332
339
334
331
338
342
338
333
333
328
317
314
318
317
315
315
319
319
314
315
319
322
327
352
389
420
405
342
304
266
283
316
324
321
324
327
324
321
325
329
326
325
330
332
329
326
330
333
330
330
336
338
333
334
340
342
339
340
346
347
345
347
353
355
353
358
365
365
364
368
375
374
371
374
379
375
370
369
366
353
342
338
333
322
315
315
314
309
307
309
309
304
308
309
305
306
310
311
308
309
315
313
307
310
314
313
309
312
316
314
311
314
317
314
311
313
317
314
310
313
317
315
312
314
316
313
312
317
319
314
313
316
319
321
321
313
311
311
314
320
319
315
318
323
322
318
318
323
321
317
320
324
320
318
321
322
320
322
326
325
320
324
329
329
327
331
335
335
337
345
345
334
334
341
338
330
323
325
324
320
322
328
326
322
324
327
327
324
326
336
357
382
406
401
371
339
315
291
285
302
325
332
332
332
336
337
334
334
339
341
337
337
342
343
339
341
346
345
341
348
348
346
351
360
347
341
349
357
358
357
361
366
366
366
373
378
377
376
380
384
382
381
384
383
372
364
359
354
347
338
327
321
316
316
318
316
311
310
315
314
311
312
316
314
311
313
318
316
312
314
319
318
320
319
313
311
312
317
320
316
313
318
321
313
318
321
317
314
318
320
323
314
311
313
313
312
317
317
313
315
318
318
317
319
324
321
320
323
327
331
332
325
328
328
324
323
322
318
316
319
317
313
313
318
321
316
314
319
324
322
313
333
366
390
389
372
349
319
280
272
297
317
322
324
325
322
325
331
328
320
324
325
325
328
332
330
329
333
336
335
332
335
340
338
340
350
342
335
338
347
351
350
352
359
361
359
363
369
369
366
369
375
372
371
363
355
347
338
335
332
325
316
313
314
310
307
309
310
307
304
314
314
300
298
306
311
308
306
311
313
310
312
313
309
310
316
317
317
308
309
310
309
312
316
314
309
312
314
313
308
310
315
313
310
312
316
315
319
317
312
311
313
317
321
319
320
327
326
318
312
314
313
308
310
313
311
307
313
317
306
300
307
314
312
313
332
359
379
377
361
343
316
277
265
294
316
322
324
312
310
317
322
320
319
323
326
323
322
327
327
323
323
328
329
326
326
333
335
334
338
334
333
332
338
345
346
344
348
355
356
354
359
364
362
358
362
364
359
353
351
347
336
333
324
313
305
304
309
309
304
302
306
305
301
302
306
306
300
301
307
303
304
309
310
308
312
306
301
302
307
312
310
306
309
314
310
306
309
313
309
307
310
312
308
306
311
312
308
306
310
311
307
308
319
312
300
304
310
313
308
310
315
314
312
314
318
318
315
315
321
320
319
324
329
321
314
313
314
309
307
310
312
308
311
314
309
308
312
313
312
319
340
364
378
368
352
330
298
265
276
304
312
314
320
318
314
316
320
319
317
319
323
321
319
323
324
322
321
325
328
326
324
330
332
329
328
334
337
334
335
342
345
342
343
351
353
353
354
361
362
360
361
365
364
358
356
354
332
326
323
315
307
307
308
303
299
302
304
301
299
302
304
300
298
302
304
300
299
303
305
301
301
305
306
302
302
306
306
301
303
308
306
303
304
309
307
304
306
311
308
304
307
310
307
304
307
311
308
305
308
310
307
305
309
312
309
307
311
312
308
308
313
310
310
314
314
311
311
315
315
311
312
316
316
312
315
319
316
311
315
320
318
314
318
321
318
315
317
320
317
316
319
322
318
316
321
323
318
317
322
323
318
318
323
323
320
320
324
324
320
322
326
326
322
324
327
325
321
323
328
326
323
325
329
326
329
334
330
328
333
338
336
333
338
343
342
339
338
336
327
323
325
326
321
321
326
326
322
322
326
324
320
324
337
351
378
408
409
387
359
327
297
301
316
328
332
327
323
328
330
326
324
328
331
328
325
330
333
329
328
334
335
331
332
337
337
334
335
340
338
340
347
346
343
347
353
354
354
357
363
364
363
367
371
369
367
369
371
366
358
356
351
338
330
328
325
316
312
313
312
307
306
309
310
304
305
309
308
304
305
308
307
304
307
310
308
305
308
312
308
305
308
312
310
306
311
313
309
307
312
314
312
309
314
310
310
314
314
310
309
314
315
310
311
315
316
311
311
316
315
311
313
318
317
312
313
317
314
311
315
318
316
313
316
319
315
313
317
319
316
315
318
319
316
315
319
319
316
316
320
320
316
317
321
321
318
318
322
321
317
319
323
321
318
320
324
321
320
323
321
318
322
325
324
327
335
338
336
335
338
343
340
337
338
336
328
319
320
319
315
316
320
320
316
316
319
318
313
315
327
340
363
400
409
386
354
324
290
288
306
320
325
322
318
321
323
322
320
324
325
322
322
326
329
325
324
329
331
329
328
333
330
332
338
340
335
338
344
344
343
346
353
354
354
357
364
365
365
368
374
371
368
371
373
366
358
355
351
339
328
325
321
314
310
312
311
305
304
308
308
303
303
307
307
303
302
307
307
304
306
311
310
306
307
312
310
306
308
313
310
307
309
313
310
308
315
311
309
313
315
312
309
313
317
312
311
315
316
311
312
317
317
313
312
317
317
312
313
318
317
313
316
320
318
314
317
320
316
314
318
321
318
317
320
322
318
317
321
322
319
317
321
323
319
319
324
325
320
319
324
324
319
320
324
324
321
322
325
324
328
338
339
338
340
344
342
341
344
343
336
331
327
326
319
315
320
323
320
317
321
323
320
318
323
331
344
372
403
402
373
344
319
283
278
307
326
326
322
324
329
328
324
327
332
330
326
329
332
331
329
333
338
335
333
338
341
338
337
343
345
342
343
348
348
350
357
360
358
361
368
371
369
372
377
378
374
377
381
377
369
366
362
351
339
335
332
323
316
317
317
312
308
310
312
308
306
310
312
307
305
310
312
308
307
312
312
308
308
313
314
310
310
314
314
310
311
314
313
309
310
313
313
309
311
314
312
308
312
310
307
310
313
310
307
311
314
310
308
312
315
310
309
313
315
311
309
314
314
310
310
315
316
311
310
316
315
310
312
316
315
311
313
317
314
311
314
318
320
320
325
332
329
324
331
337
334
328
328
324
314
310
312
313
309
308
313
314
309
310
315
314
333
361
389
388
364
340
312
272
266
300
316
316
318
321
319
316
320
324
321
318
322
325
322
321
326
329
324
324
329
332
328
328
334
335
331
333
338
340
336
339
346
347
344
348
357
357
356
360
367
367
364
368
372
369
363
362
359
349
338
332
327
317
311
311
303
300
303
303
299
297
301
304
299
298
302
303
299
300
306
304
302
302
308
307
304
305
310
308
304
306
310
307
304
307
310
307
305
309
312
307
304
308
311
308
306
309
312
308
308
312
313
307
307
312
313
308
307
312
313
308
309
314
313
309
311
316
314
309
315
313
310
313
317
315
312
315
319
316
313
317
320
317
314
317
320
317
316
319
321
318
317
320
322
319
319
322
323
319
321
328
330
330
334
340
335
332
339
344
338
331
329
325
318
314
317
320
319
316
319
321
318
316
321
333
346
372
406
403
372
344
317
282
310
325
327
323
322
325
326
323
323
329
328
323
325
330
330
327
330
333
332
330
333
338
336
334
337
341
338
337
342
346
345
345
351
355
354
356
363
366
363
365
372
373
369
371
374
371
364
361
357
349
338
330
328
322
314
313
315
311
306
308
312
309
306
309
309
307
309
312
309
307
312
314
310
308
313
315
310
309
314
314
310
311
315
315
311
312
317
316
311
313
317
315
311
313
317
315
312
314
317
316
313
316
319
315
313
316
320
316
313
317
319
316
314
318
319
315
314
318
320
315
315
319
319
316
316
320
320
316
320
321
316
317
321
320
316
319
322
320
317
320
323
320
318
320
324
321
319
323
324
320
319
324
326
321
322
330
335
332
332
341
342
337
338
343
343
335
332
330
323
316
317
321
320
315
317
321
319
316
319
328
338
360
396
409
383
351
326
291
277
301
322
328
321
324
327
323
322
326
327
324
324
329
329
326
328
333
333
328
331
337
336
332
336
342
339
336
341
346
344
343
348
354
354
353
359
366
366
364
369
373
370
369
373
374
368
363
360
354
341
333
331
324
316
314
314
311
305
305
309
308
303
306
310
308
304
308
308
306
308
312
310
307
315
337
312
288
296
307
307
305
309
312
309
307
311
314
310
311
313
314
310
311
316
315
310
312
317
316
312
313
318
317
313
315
319
316
314
316
320
317
313
318
320
316
313
317
319
316
315
319
320
317
316
321
321
317
317
321
321
318
322
322
318
318
321
321
317
322
330
331
327
331
337
333
332
337
342
336
330
325
321
315
313
316
319
315
314
317
319
316
314
321
335
355
386
408
389
351
323
293
270
288
314
324
324
322
330
328
320
315
321
327
326
325
327
329
328
326
330
334
330
329
333
338
333
338
342
341
341
344
348
347
349
354
357
355
358
365
368
365
367
376
381
379
368
368
368
362
357
353
343
332
328
326
318
311
312
313
310
307
310
312
307
305
309
312
313
314
307
307
305
306
312
313
310
310
315
315
312
311
316
315
311
312
317
316
313
313
316
313
319
322
310
306
310
315
314
313
314
317
315
312
317
319
315
313
318
320
317
315
318
321
317
316
326
322
309
310
319
320
316
320
326
326
321
324
329
328
325
329
336
338
331
329
328
322
318
320
327
324
311
313
319
318
317
322
324
320
320
336
361
384
375
354
325
295
274
291
315
325
329
329
328
334
328
323
323
329
335
334
330
332
336
335
332
336
341
339
337
341
344
341
340
347
358
347
340
348
355
353
354
362
365
364
365
372
375
373
373
377
379
373
373
373
368
355
353
350
329
319
320
322
316
310
313
316
307
308
312
310
308
311
314
309
309
316
323
309
303
310
315
311
310
315
317
313
311
315
315
311
312
316
315
311
314
319
317
316
319
313
308
308
313
317
314
310
313
318
316
316
320
323
322
320
324
327
324
324
330
330
323
317
316
317
311
311
316
316
311
314
315
304
307
316
316
316
336
366
387
382
363
345
316
275
267
298
316
317
320
324
321
319
322
325
322
322
326
327
324
323
328
329
325
325
331
333
330
331
335
335
333
335
340
339
336
339
346
347
345
349
355
356
355
361
364
363
362
365
365
360
355
353
348
335
322
320
311
305
307
306
300
299
303
303
299
299
303
302
298
300
305
305
299
302
307
304
302
302
308
306
301
304
308
305
301
304
307
304
302
305
307
304
303
306
309
303
303
307
308
305
302
306
307
304
306
311
311
306
309
315
312
309
314
320
322
319
316
314
302
303
307
305
303
306
308
305
304
307
309
305
304
313
328
348
374
389
372
343
314
278
263
285
306
315
315
312
311
317
317
313
315
320
319
315
318
323
321
318
320
324
322
320
323
328
327
325
328
331
330
329
335
339
337
338
344
349
347
348
355
359
357
356
363
359
357
360
355
344
337
333
325
315
313
313
309
303
304
308
305
300
303
307
305
302
305
308
304
302
306
310
307
305
309
310
306
305
310
311
307
307
311
312
306
306
311
311
308
308
312
311
307
309
313
312
308
310
313
311
308
313
318
317
312
315
322
318
321
326
326
326
327
324
313
308
311
312
309
309
314
313
309
310
314
314
311
310
317
327
344
375
400
387
362
339
304
274
290
314
325
322
319
321
324
321
320
324
326
324
323
327
329
326
325
330
333
331
329
333
334
332
333
338
339
336
339
345
345
342
345
353
353
357
363
362
361
363
368
366
363
364
364
356
347
343
338
328
317
318
319
312
308
310
311
307
306
310
312
308
308
311
312
308
308
313
311
307
309
312
312
309
311
316
314
309
310
315
313
310
312
316
312
310
314
317
313
311
316
319
318
316
321
324
321
319
326
324
327
331
329
320
314
315
315
310
311
315
314
310
313
317
315
312
313
318
319
325
345
376
389
371
354
334
296
272
297
320
322
320
321
323
319
318
322
325
322
323
326
327
324
326
330
331
327
330
334
334
331
333
338
338
335
338
344
344
343
346
352
352
355
361
360
359
364
367
365
363
366
366
358
351
347
342
330
322
321
318
311
308
310
310
305
305
310
309
304
305
309
309
306
307
311
310
307
309
313
311
307
310
314
311
308
311
314
311
309
311
313
311
309
312
314
310
310
314
315
310
310
315
318
314
315
319
320
320
324
324
323
329
333
326
318
315
316
312
308
312
317
314
310
313
317
314
311
315
317
318
331
359
392
393
371
348
320
278
274
306
323
320
319
321
323
319
320
324
324
320
322
327
327
324
326
330
329
325
329
334
333
329
332
337
336
334
337
342
341
339
350
349
349
355
359
358
358
363
364
360
361
364
362
354
347
343
336
326
320
321
315
309
307
310
308
303
305
309
307
304
306
311
307
305
308
312
308
306
309
312
309
308
312
314
309
308
314
315
310
310
313
313
310
310
314
315
310
311
315
314
310
311
314
313
313
317
314
311
313
317
316
312
315
319
315
311
315
318
316
314
317
320
315
315
318
320
316
315
321
321
316
316
321
323
318
318
322
321
318
320
326
326
323
325
331
329
326
330
335
336
336
339
336
327
319
322
324
322
320
323
325
321
320
324
325
322
320
330
362
394
414
394
358
329
295
281
303
322
331
329
324
325
330
329
326
328
333
330
327
330
333
332
330
333
336
334
332
336
339
337
337
342
345
342
343
347
349
347
350
356
359
357
358
364
366
364
366
371
371
368
368
369
365
357
353
349
339
329
325
324
317
311
313
310
307
310
312
309
310
319
313
302
303
310
314
310
308
313
315
312
311
315
316
311
312
317
317
313
313
318
316
312
314
318
315
312
314
319
315
313
322
318
305
305
312
316
312
310
314
317
314
313
316
319
316
314
318
318
315
316
319
320
316
316
321
322
322
327
326
324
334
336
324
320
328
338
337
329
326
324
319
314
317
320
318
317
321
324
320
317
320
322
319
327
352
379
398
385
360
334
302
273
286
317
325
327
331
331
327
330
333
332
328
331
336
334
331
335
339
337
333
337
341
340
338
342
346
342
342
347
347
349
358
363
350
349
360
364
363
365
371
374
371
372
377
376
370
367
365
357
345
340
336
330
321
319
319
315
310
312
315
312
309
312
315
311
309
313
316
313
312
316
318
314
312
316
318
313
313
316
316
312
312
317
315
311
311
317
314
311
312
316
313
309
316
313
309
314
318
313
310
314
317
313
311
315
318
313
312
319
322
317
315
322
325
321
321
327
331
331
330
327
320
311
311
314
312
308
311
314
312
309
312
315
312
308
312
325
345
368
387
368
336
309
280
261
280
307
318
320
317
316
320
322
318
319
323
324
321
327
328
324
325
329
329
326
329
334
334
331
335
339
338
335
340
346
345
344
349
355
354
355
361
366
364
362
367
368
364
362
363
360
348
340
338
330
319
314
314
309
302
301
305
304
300
301
305
304
300
302
307
304
301
304
309
307
304
307
310
307
305
308
305
305
307
310
305
303
307
310
305
304
308
309
306
306
311
310
304
305
309
308
305
305
310
310
306
308
313
310
306
308
312
310
307
310
314
311
309
313
316
313
311
314
316
314
315
320
321
317
318
325
325
322
323
331
336
329
323
322
318
311
311
316
316
311
318
314
310
312
317
315
320
339
367
396
393
372
346
314
274
280
310
320
322
324
325
320
321
326
326
323
324
328
330
325
326
330
331
328
330
336
336
332
333
338
339
336
339
345
344
342
345
352
351
351
356
361
360
359
364
367
364
366
370
371
366
362
361
355
336
334
328
319
314
315
313
308
305
309
310
306
306
311
310
307
308
311
309
306
309
313
312
309
312
315
312
309
312
315
312
310
313
315
312
311
315
317
312
309
313
314
309
309
314
315
311
311
315
315
311
311
315
314
312
314
318
315
311
314
317
314
311
314
315
313
315
318
317
313
317
320
315
314
318
319
316
315
320
323
322
321
324
328
326
326
329
330
329
335
339
332
320
317
321
317
313
314
319
318
314
317
320
317
313
315
326
338
362
399
408
379
346
319
285
277
303
321
326
322
320
324
325
321
322
327
327
323
329
329
325
326
333
331
328
332
336
336
334
337
340
337
335
341
347
345
344
350
355
354
354
360
363
360
361
367
370
366
365
368
369
359
353
350
343
331
324
324
318
311
309
312
308
304
305
310
308
305
309
310
307
305
309
311
309
306
309
313
310
307
310
313
308
311
313
309
309
312
314
311
309
314
314
310
310
315
314
309
310
314
313
310
313
317
314
310
312
317
315
312
313
316
314
313
316
319
315
314
317
319
315
314
318
319
316
314
318
319
316
316
320
320
316
317
322
321
316
317
322
321
317
320
325
325
323
326
327
326
328
334
330
329
338
343
334
325
324
324
319
316
321
322
316
316
320
322
317
317
320
322
331
354
392
414
390
358
331
293
269
295
322
328
324
324
327
325
322
325
330
327
324
328
331
329
327
331
335
331
330
335
337
334
335
339
343
339
339
345
348
346
353
356
354
357
363
365
363
367
372
371
367
369
373
370
364
362
359
348
337
333
331
321
316
314
313
309
305
309
312
308
305
308
312
309
311
321
316
301
301
310
313
307
307
312
312
310
310
316
315
311
313
316
315
311
312
317
315
311
313
315
312
309
313
317
311
314
322
318
305
308
314
311
311
315
316
313
312
316
318
314
316
317
317
313
314
319
319
314
314
320
320
315
318
322
320
318
321
327
325
322
327
337
327
318
323
331
333
332
332
329
319
315
318
320
316
315
319
320
316
317
323
322
316
320
337
363
387
395
342
312
281
270
292
317
325
328
328
324
327
330
326
325
330
335
332
329
334
336
334
333
338
339
336
336
342
341
338
340
347
348
344
346
353
355
353
355
361
364
363
366
372
370
368
372
376
374
371
372
370
360
349
344
338
329
322
320
319
312
307
308
308
304
308
307
304
305
309
310
305
305
310
310
308
309
312
310
307
309
312
311
306
309
314
311
307
309
312
309
307
310
313
310
307
311
311
308
307
311
312
309
308
311
312
309
308
312
314
310
310
316
314
308
309
314
314
310
311
315
315
312
312
318
315
311
314
319
314
319
324
320
318
323
327
324
323
330
337
336
330
327
323
316
314
316
317
315
315
318
318
315
314
320
318
316
330
355
384
401
382
357
331
291
269
295
317
320
323
327
322
319
322
325
323
321
324
328
324
322
327
327
325
327
333
333
328
328
334
337
336
336
340
339
343
348
349
346
351
358
357
355
361
368
367
363
367
371
367
361
362
359
348
337
333
329
319
313
313
312
306
304
308
308
303
302
306
307
303
303
306
308
305
306
311
310
305
306
311
310
308
310
313
310
307
310
312
309
306
311
315
311
307
310
312
309
310
315
310
308
312
313
309
309
313
313
310
311
316
316
312
314
318
317
312
312
319
319
314
315
319
318
314
315
320
318
315
318
320
315
315
319
323
322
322
327
326
322
324
328
330
328
331
338
340
331
324
323
321
316
317
319
319
316
318
323
322
318
318
322
338
367
405
413
384
355
327
283
275
306
325
324
322
325
327
324
322
328
331
326
324
330
331
326
327
332
334
331
331
336
336
332
334
339
339
338
339
344
343
340
346
353
353
350
355
362
362
361
368
373
369
365
369
372
366
360
357
351
340
332
329
323
313
309
312
306
304
307
307
303
304
310
309
304
306
311
308
306
308
312
310
307
310
312
310
309
312
316
311
309
312
313
308
308
313
314
309
309
313
313
308
308
312
312
308
309
313
318
318
307
306
309
307
310
315
313
309
313
318
315
311
313
316
315
311
314
317
314
316
318
315
313
318
321
315
314
317
319
316
315
324
333
321
313
320
326
323
325
330
332
332
334
333
325
318
319
321
319
315
318
322
318
315
318
322
320
316
323
343
368
400
412
377
339
314
285
274
298
319
327
329
325
325
330
332
327
328
333
333
329
330
336
337
340
334
333
333
337
343
341
339
345
349
347
345
350
354
352
353
359
364
362
363
370
374
371
372
379
387
374
365
370
369
360
353
350
341
329
326
327
321
314
314
316
313
308
311
315
313
316
314
309
308
307
312
317
316
313
316
319
316
313
316
320
316
314
323
320
308
311
317
314
313
317
318
314
314
320
319
313
314
318
317
313
316
322
319
315
317
321
318
315
319
322
318
316
320
322
321
327
324
319
317
320
325
329
327
328
335
337
332
327
326
321
316
315
319
321
318
318
321
320
316
320
325
321
318
333
361
386
370
356
321
279
263
291
318
321
323
327
325
324
330
331
326
326
332
333
329
330
336
336
330
331
337
338
335
337
340
340
338
341
346
344
342
346
352
352
351
356
362
360
359
366
372
373
370
363
365
364
361
360
354
340
332
330
325
315
311
311
308
302
302
305
299
299
303
303
301
303
307
306
303
304
308
305
301
306
310
306
304
306
309
306
303
308
309
305
303
306
309
304
304
309
311
305
304
308
307
303
304
310
309
304
303
307
307
303
305
310
308
305
307
312
309
306
309
312
309
306
310
315
313
309
314
320
317
315
322
322
324
326
324
314
310
310
310
306
308
313
313
309
310
315
314
308
309
319
333
354
385
396
369
339
316
282
272
296
315
322
318
315
319
322
319
318
322
323
321
321
325
328
324
323
329
331
326
327
333
333
329
330
336
336
334
338
344
343
341
345
352
353
356
362
362
360
365
368
365
363
365
364
356
346
342
337
327
319
316
314
307
305
308
309
303
302
306
308
304
304
308
309
303
305
309
308
305
307
311
309
305
308
313
312
309
310
314
310
307
311
315
312
309
312
315
312
310
313
315
311
311
313
315
311
310
315
310
311
316
316
312
312
315
315
311
313
317
315
312
315
319
317
313
315
319
317
314
314
318
317
315
316
319
317
316
319
321
315
315
320
322
318
317
322
322
317
317
321
322
319
320
325
323
318
319
324
322
319
321
325
326
324
325
330
329
325
328
335
332
332
341
332
324
323
324
319
318
321
322
318
319
322
321
316
315
320
327
337
361
400
413
389
362
337
294
279
304
325
326
321
320
324
325
322
325
329
326
324
326
329
326
324
329
332
330
328
332
335
332
331
335
337
335
335
342
344
341
344
352
351
350
353
359
361
364
370
369
366
370
372
368
362
360
357
346
335
330
327
319
313
314
314
306
304
310
312
305
303
308
310
305
303
308
309
306
306
310
310
307
308
312
311
307
307
312
312
309
309
311
311
309
312
316
313
309
312
316
311
308
313
315
310
308
313
315
311
309
314
312
312
317
318
313
314
317
316
313
313
318
318
313
314
319
317
314
316
320
319
316
318
321
319
316
319
321
320
318
320
323
320
318
320
323
320
318
321
324
321
319
325
326
321
321
324
325
322
322
326
325
323
323
327
325
322
326
333
332
328
331
339
339
333
345
342
338
338
336
326
321
324
327
322
319
322
325
321
321
324
327
332
352
385
414
402
373
347
314
277
291
320
328
326
327
329
327
325
335
335
323
320
326
332
329
326
330
335
333
331
336
339
335
334
339
343
341
342
348
349
345
346
352
357
356
360
374
366
362
371
373
371
373
378
376
369
366
364
355
344
338
337
327
318
317
319
313
309
311
313
309
309
318
317
303
301
308
312
310
310
314
316
311
310
315
315
310
311
317
317
314
315
316
317
319
318
312
309
310
313
316
314
312
314
317
315
313
315
319
315
313
316
315
314
321
328
315
307
315
319
316
315
319
320
316
317
322
320
315
317
322
321
317
318
322
320
316
320
331
322
311
315
322
320
318
321
323
322
321
327
333
334
335
339
339
336
336
342
344
340
340
324
314
315
318
321
321
317
320
323
322
320
321
328
340
362
396
374
351
335
293
266
290
322
331
326
324
329
332
330
329
333
334
330
328
334
334
331
332
340
346
332
329
337
339
337
339
345
344
343
346
354
353
351
355
361
362
361
365
372
372
372
375
381
383
369
367
373
367
359
356
349
339
332
330
324
315
312
315
314
307
312
310
306
307
312
312
308
309
315
319
310
304
311
313
309
312
316
313
310
313
316
314
311
314
318
312
309
313
315
311
309
313
314
313
317
309
305
304
308
312
312
307
308
313
312
308
310
314
313
309
311
315
313
309
311
316
314
310
313
316
313
311
313
313
312
317
322
318
317
324
324
319
320
325
331
328
323
323
319
313
311
314
313
310
312
316
315
310
311
314
313
309
316
334
354
375
383
363
336
310
281
266
288
310
317
320
318
317
321
321
318
317
322
324
320
319
324
326
323
324
330
329
326
327
333
332
330
336
334
332
336
342
342
342
347
351
351
352
358
363
361
362
366
368
364
361
362
359
349
339
335
328
317
310
310
308
301
298
303
302
297
298
302
300
296
297
302
301
298
299
304
303
299
302
307
304
301
304
307
306
304
306
308
305
303
307
309
306
305
309
309
305
309
309
305
305
309
308
304
305
309
309
305
306
311
310
307
308
312
311
307
309
314
311
308
311
314
312
309
312
316
313
310
314
318
313
312
314
315
312
312
317
318
315
315
319
318
314
315
319
318
315
315
320
319
315
318
321
319
316
318
321
319
317
324
330
324
329
337
333
330
338
342
337
332
332
327
319
316
321
322
318
317
320
320
317
316
323
330
341
369
407
407
381
354
327
287
285
311
325
326
321
322
327
324
321
324
328
325
323
326
329
327
326
329
332
329
327
332
335
331
331
337
339
337
337
341
344
341
350
352
350
354
362
363
361
365
370
370
368
371
374
371
365
361
357
346
336
332
328
319
312
314
314
309
306
310
310
305
304
309
310
306
305
309
309
305
306
310
311
306
307
311
311
308
309
314
313
309
310
314
311
308
311
315
312
309
312
316
312
310
314
316
310
314
315
312
312
316
318
313
312
317
317
314
314
318
317
313
315
319
318
314
316
319
318
314
316
320
317
314
318
321
317
315
319
321
318
316
318
320
317
315
320
322
318
316
321
322
318
318
322
321
317
319
323
322
319
320
324
322
317
320
325
323
320
322
324
321
325
330
330
330
335
340
339
340
342
344
339
336
338
337
327
320
322
322
317
318
322
323
319
317
321
320
319
329
351
381
410
407
384
351
312
280
294
316
320
323
326
322
319
322
326
323
321
325
328
325
323
328
331
327
327
330
333
332
332
337
337
334
342
343
340
342
348
351
348
352
359
359
359
363
370
370
369
372
377
375
370
372
373
364
353
346
342
330
322
322
318
311
306
309
309
305
303
307
308
304
304
308
309
304
304
308
308
305
305
310
310
306
308
312
311
307
309
313
310
308
311
313
312
310
313
316
307
311
315
310
308
314
316
312
310
315
316
312
311
316
315
311
312
315
314
311
311
315
314
311
313
318
316
312
313
317
315
314
315
320
316
312
317
321
316
314
318
320
318
320
326
317
310
311
319
322
318
317
323
324
319
320
330
333
334
336
337
336
334
338
338
329
324
322
320
316
319
329
320
309
313
320
320
315
320
335
356
384
409
395
363
332
301
275
290
316
326
326
323
323
327
326
323
325
332
336
322
319
326
329
328
330
334
334
330
333
338
339
336
338
343
342
341
346
352
349
348
354
359
358
362
374
369
360
372
375
372
372
375
373
365
358
354
346
334
328
328
321
314
314
317
312
308
309
313
316
313
304
307
308
307
311
315
311
310
313
316
312
310
314
317
314
312
316
318
314
313
318
317
313
312
316
315
311
313
318
316
312
312
318
317
313
314
318
316
312
315
318
312
316
318
316
315
317
320
318
321
324
315
312
314
319
321
317
316
321
322
318
319
323
323
318
320
324
323
319
321
325
326
325
330
337
339
336
337
340
338
337
337
337
325
316
318
321
317
315
319
320
317
315
320
320
317
328
355
383
391
374
352
325
291
265
313
319
320
324
324
322
323
327
326
324
326
330
328
324
327
331
329
326
329
333
330
330
336
339
335
334
340
342
340
340
346
350
347
350
357
360
360
362
369
369
366
368
371
370
365
364
364
353
340
335
330
320
312
309
310
305
301
303
304
301
297
301
303
299
302
305
302
301
305
307
303
303
307
309
305
304
309
309
304
306
309
309
305
305
308
308
304
306
311
309
305
307
311
309
307
310
313
309
306
309
311
309
306
309
313
309
308
312
312
309
308
312
314
309
309
314
314
310
310
315
316
310
311
316
315
311
313
317
312
314
319
315
313
316
320
316
314
317
320
317
315
319
320
317
316
319
320
317
316
321
324
322
325
333
336
332
330
339
341
336
334
336
329
317
315
321
318
313
315
321
319
316
318
320
321
331
356
392
407
390
366
338
296
276
302
322
324
322
324
325
321
321
326
322
324
327
327
324
324
329
328
326
329
333
332
331
333
338
336
334
337
341
341
340
345
349
350
349
353
359
360
362
368
372
369
368
372
373
368
365
365
359
348
338
334
328
319
314
316
314
306
306
311
308
304
305
309
308
305
306
309
307
306
309
313
309
311
313
310
309
313
313
309
308
312
314
310
311
314
316
311
311
317
315
311
312
316
316
312
311
315
314
311
312
317
315
313
315
319
315
312
315
319
316
313
316
318
314
313
316
318
314
313
318
320
317
316
319
321
316
316
321
320
315
316
321
320
316
317
321
316
319
322
320
317
319
323
320
316
319
323
321
318
320
323
321
319
323
325
321
318
323
325
321
320
325
330
331
334
339
343
338
338
346
344
336
335
338
329
317
316
320
318
315
317
322
320
316
317
319
322
330
358
399
412
391
364
336
291
276
305
322
321
321
325
320
320
324
325
322
324
328
328
324
325
330
330
327
328
334
333
330
332
338
336
334
337
343
343
341
346
351
351
351
358
363
362
362
368
371
369
371
376
378
372
370
369
364
352
342
337
332
323
318
317
314
307
307
310
308
304
306
310
309
306
307
311
309
309
312
309
306
310
313
310
307
312
314
311
308
311
313
311
309
312
313
309
309
313
314
310
310
313
313
310
310
315
314
310
310
314
314
310
312
316
313
310
312
315
314
310
314
317
316
311
314
316
313
312
315
317
313
313
317
319
314
314
319
320
317
317
321
317
317
322
322
319
320
323
321
318
321
328
332
331
336
337
333
335
346
349
332
323
320
319
316
315
317
320
318
316
320
321
317
315
323
339
360
389
407
387
353
323
292
271
290
317
327
325
321
323
330
333
330
321
323
324
322
327
332
329
327
331
335
333
332
339
337
337
341
345
343
342
347
351
348
349
356
360
359
362
369
371
369
371
376
376
373
374
378
375
366
357
353
343
332
327
327
320
313
313
313
309
306
309
312
308
305
309
311
308
306
311
313
309
308
314
314
311
312
316
315
311
312
316
315
312
311
315
314
312
315
314
309
312
316
313
309
311
315
310
309
312
315
313
310
314
317
313
311
315
317
313
311
315
317
314
313
318
317
314
314
318
316
312
313
318
317
314
315
319
317
313
316
319
318
315
318
320
317
316
318
320
318
315
320
325
323
324
331
336
331
328
334
335
331
329
322
313
312
316
316
312
312
316
315
312
314
317
322
335
363
397
399
369
341
318
277
266
299
321
322
318
320
322
320
319
324
325
322
321
324
326
323
323
328
330
326
326
331
331
329
331
336
336
334
336
341
341
339
343
349
350
349
355
361
360
360
372
369
367
371
372
367
362
360
354
342
330
326
321
313
308
308
307
302
299
303
304
299
299
305
303
300
301
304
304
301
303
307
306
302
304
308
307
303
306
310
306
305
307
310
307
304
308
310
306
305
310
310
307
306
310
311
308
308
312
311
306
306
312
311
308
312
312
310
310
314
314
309
311
315
313
310
313
317
314
311
313
316
314
312
317
320
316
314
318
320
318
316
319
321
317
315
320
320
316
317
321
321
317
318
322
321
318
318
322
322
319
320
324
324
326
329
333
331
332
335
339
339
338
340
340
331
320
321
317
317
321
322
318
318
321
320
320
329
353
384
411
405
381
349
312
277
293
318
323
325
329
329
324
325
329
327
323
327
331
328
326
328
332
329
327
332
336
333
333
337
340
336
336
342
344
341
342
348
351
349
352
358
361
360
365
370
370
369
372
377
376
371
371
363
352
347
342
332
321
319
320
314
308
309
311
308
305
308
310
306
305
310
311
308
307
309
312
308
308
313
313
309
310
314
312
309
309
314
313
310
311
315
313
309
312
316
313
310
313
318
313
310
313
316
312
311
314
316
312
312
317
318
313
312
315
315
312
317
317
313
313
317
317
313
313
317
315
312
315
320
319
315
316
320
316
314
317
320
318
315
319
322
320
317
318
320
317
317
322
323
319
317
321
322
318
317
322
322
321
322
330
332
331
333
335
337
336
338
340
336
327
321
321
320
317
318
321
318
314
317
318
321
335
346
368
400
404
381
345
312
279
287
311
321
327
326
322
321
327
326
323
325
330
330
325
326
332
331
327
330
334
334
331
334
340
345
336
333
338
339
340
343
348
347
348
355
359
358
360
368
371
368
368
374
376
372
371
375
370
360
353
349
341
329
325
325
318
308
309
307
305
309
312
308
304
308
312
309
308
311
313
310
307
312
316
310
309
314
317
314
319
314
309
307
309
314
316
312
311
316
316
312
314
317
316
312
313
317
317
313
316
319
317
313
317
321
318
315
318
321
318
316
318
320
316
315
318
321
316
320
320
315
315
321
321
316
315
320
320
317
318
321
320
317
319
321
320
318
319
325
325
325
330
338
337
332
333
340
340
336
335
334
323
315
318
320
315
314
319
320
315
316
321
321
322
336
367
395
396
372
347
319
279
266
296
321
322
324
328
327
322
327
328
326
328
333
329
327
330
334
331
330
335
337
334
333
338
342
338
337
342
346
344
345
350
353
352
353
362
366
364
367
373
373
370
372
377
375
370
367
364
355
343
335
331
321
314
312
313
306
302
303
306
302
300
303
305
301
301
305
306
302
302
308
308
304
309
309
306
306
309
308
305
308
312
310
306
308
310
308
306
308
310
309
305
309
312
308
307
309
312
308
307
310
312
309
307
312
313
311
310
313
313
310
309
314
314
309
310
315
314
310
312
317
315
312
314
318
315
312
314
318
316
312
315
318
315
313
317
320
313
317
320
317
317
321
320
316
315
319
320
317
318
326
331
327
328
335
334
333
337
341
338
332
327
323
319
314
318
322
319
315
317
320
318
314
319
334
351
379
410
402
370
339
308
279
291
314
326
327
321
320
324
326
322
321
327
327
323
325
330
329
326
329
333
329
331
336
335
332
336
341
339
338
344
347
345
344
350
356
355
357
362
367
365
366
371
373
370
369
373
372
364
357
353
345
333
327
324
318
311
308
311
307
302
304
308
307
302
304
307
306
303
305
308
307
305
308
310
307
304
308
311
308
306
311
312
308
311
311
308
309
314
314
309
309
315
315
309
309
315
312
307
309
315
314
310
311
314
313
309
312
315
314
310
315
317
313
310
314
316
313
312
316
317
313
312
317
319
315
313
317
319
315
315
319
320
317
316
320
319
316
317
320
320
315
318
321
320
315
318
323
318
320
323
320
318
322
325
322
323
329
334
330
332
340
342
338
337
341
340
334
331
329
323
317
316
321
321
317
318
322
321
317
317
325
335
354
390
416
398
366
338
302
275
293
318
328
325
321
325
327
324
323
328
329
325
325
329
330
326
327
332
332
328
331
335
334
335
339
340
337
339
346
345
343
348
355
354
352
358
366
365
364
370
374
373
371
375
375
369
363
361
356
343
333
330
326
316
311
313
311
306
306
308
307
304
304
308
307
304
306
310
307
304
305
310
308
306
308
312
309
306
309
311
309
308
311
313
310
311
314
310
309
312
314
308
309
314
314
310
310
314
315
311
310
314
314
311
311
315
315
312
314
316
315
311
314
317
314
312
315
318
315
313
316
318
316
316
325
324
309
308
315
319
316
314
318
320
317
316
321
321
317
317
322
322
317
319
325
326
325
330
339
330
335
342
341
335
334
330
321
316
324
327
313
308
315
319
316
315
319
320
323
339
373
404
401
373
346
319
277
275
309
324
322
324
329
328
323
325
331
332
334
329
324
325
325
330
334
332
331
335
339
337
336
340
343
341
340
346
350
347
349
354
357
358
365
360
362
368
375
377
375
376
380
380
373
371
368
360
349
342
338
328
320
319
321
317
310
317
321
305
301
308
313
310
309
313
316
311
310
316
317
312
311
317
317
312
312
316
317
316
322
320
311
307
313
319
316
313
315
319
317
314
315
318
317
315
318
319
315
316
319
316
315
318
320
316
316
320
321
318
317
320
322
317
316
320
321
317
317
322
320
315
317
321
320
317
320
324
322
319
319
323
321
318
322
326
328
330
336
342
338
333
338
342
340
336
336
330
320
317
321
321
316
317
321
321
317
318
322
323
330
354
386
376
350
328
297
266
281
315
324
321
324
328
325
322
325
328
325
324
327
331
329
327
331
333
331
330
334
335
333
334
337
339
337
338
345
345
343
345
351
353
352
357
363
364
363
366
371
372
369
372
376
372
365
361
357
345
333
328
323
315
309
309
308
303
300
304
300
299
302
303
299
298
304
305
301
301
307
307
303
304
310
308
304
306
310
308
305
307
311
309
305
307
310
307
305
308
311
308
305
309
310
306
305
307
309
305
305
310
311
307
306
309
311
307
306
311
311
307
307
311
311
307
308
312
312
308
311
315
313
312
316
314
311
314
316
313
311
314
317
314
312
315
319
314
313
317
319
316
317
324
324
321
323
328
328
326
330
338
338
331
326
325
320
313
314
318
317
314
316
321
317
314
317
319
319
327
352
385
408
394
371
345
306
275
293
318
322
322
325
326
321
321
326
323
323
328
329
325
327
331
331
328
330
334
333
330
333
337
337
335
338
342
340
340
345
349
348
348
354
360
359
360
365
370
368
369
373
374
369
365
366
360
348
339
336
329
319
314
315
311
305
305
308
306
302
304
308
307
304
305
308
306
304
306
309
306
304
310
307
306
310
312
308
306
311
312
309
309
313
314
310
311
315
315
311
311
315
315
311
312
315
315
311
313
317
315
311
313
316
315
312
314
318
315
313
316
319
315
313
317
319
316
314
318
319
316
316
319
320
316
316
319
320
316
316
320
320
315
317
321
321
319
322
321
318
320
323
321
318
320
323
321
318
321
324
323
322
325
328
328
329
333
335
333
336
341
340
331
325
324
321
317
317
322
322
318
319
323
321
317
319
322
326
336
364
401
416
392
363
335
294
277
304
323
325
322
323
325
322
322
326
328
325
324
329
326
325
330
332
329
330
335
335
332
333
338
339
335
338
345
345
342
346
352
353
352
357
363
363
363
369
375
373
370
374
377
373
368
367
361
349
338
334
329
319
314
314
312
306
305
308
308
305
304
308
306
303
304
308
307
304
306
310
308
306
309
312
310
306
313
310
308
311
314
310
308
311
312
311
310
312
313
308
308
312
313
309
309
314
314
310
309
314
314
311
313
314
313
312
319
319
308
304
309
315
314
310
314
318
315
312
314
318
316
314
316
318
315
315
321
320
315
315
320
323
318
315
320
321
318
321
328
332
333
337
340
341
333
333
331
326
320
319
318
312
315
319
318
315
319
321
318
314
320
337
358
384
403
388
357
326
299
280
285
307
323
326
323
324
328
329
326
327
329
329
327
328
334
333
330
332
337
336
334
336
341
342
346
349
342
338
340
348
354
352
353
359
364
365
371
376
374
375
383
385
381
381
383
380
371
363
359
350
340
341
332
319
314
316
320
317
312
313
317
315
312
314
317
315
314
317
319
316
315
319
322
318
317
321
323
324
322
316
316
317
318
323
321
317
317
322
322
318
318
322
321
317
317
321
320
317
323
320
316
319
323
321
318
321
324
321
319
321
323
321
319
323
330
322
311
316
321
319
319
324
326
323
324
329
330
327
327
335
334
331
335
338
333
323
320
322
319
316
319
323
319
316
318
321
318
316
319
322
328
347
376
394
376
351
331
305
271
278
312
325
321
327
326
322
324
328
328
325
327
332
330
326
329
332
331
329
332
335
334
332
335
338
337
336
340
344
342
342
348
352
352
352
358
363
363
363
369
372
368
368
371
370
362
357
353
344
332
325
323
317
307
306
308
303
299
301
305
300
297
300
303
301
298
302
301
299
304
306
304
302
305
308
306
304
308
308
303
303
308
308
302
302
307
307
303
304
309
307
303
306
310
306
303
304
309
307
303
305
308
306
304
307
309
306
303
308
311
307
306
309
311
309
307
311
312
308
307
311
313
309
309
314
316
314
317
319
319
316
323
324
322
327
330
324
315
312
313
309
306
309
312
311
308
309
313
310
308
311
313
317
332
361
393
391
367
344
316
274
274
304
318
316
315
318
318
316
317
321
319
316
319
322
321
319
321
326
324
322
326
329
326
324
328
332
331
330
334
338
336
335
342
346
348
353
356
356
358
364
367
365
365
370
369
362
358
354
344
333
327
324
317
308
307
307
303
300
302
305
302
300
303
305
302
302
305
308
304
301
305
308
304
303
306
308
304
304
309
310
306
305
311
312
306
306
312
311
307
309
314
313
309
311
314
313
310
310
313
311
313
316
314
311
314
316
314
313
316
318
315
314
315
316
314
313
316
318
313
313
317
318
315
316
320
320
316
317
321
321
316
317
322
320
317
320
323
321
318
321
323
321
319
321
324
321
318
322
324
322
321
324
326
322
320
324
325
322
320
324
325
321
327
328
324
325
330
331
328
330
335
335
335
339
340
333
324
322
324
321
319
321
325
322
319
322
325
319
317
320
326
333
354
391
417
402
374
348
310
279
296
321
327
322
322
326
326
322
323
327
327
323
325
331
329
325
328
333
331
328
332
337
333
332
336
339
336
342
346
344
344
350
353
352
354
360
364
364
366
372
374
372
372
375
374
369
366
363
353
341
335
331
324
317
314
313
309
306
307
309
307
303
306
308
305
303
308
309
306
304
307
309
306
305
310
312
307
306
311
313
308
308
313
312
308
309
313
313
310
312
314
310
311
316
313
310
311
315
312
310
313
316
312
310
313
316
313
312
315
316
312
312
317
317
313
314
317
318
313
314
317
318
314
315
319
318
315
317
321
320
323
323
316
312
313
318
321
319
317
320
322
321
321
322
322
320
318
323
324
322
326
331
334
336
338
339
339
341
341
337
328
322
322
320
316
318
329
321
310
313
319
317
313
322
339
361
388
403
387
354
324
291
275
296
317
326
326
324
323
326
327
323
324
329
330
326
326
330
330
329
329
334
335
332
333
338
339
340
345
339
337
337
343
348
348
346
352
358
358
365
371
370
369
374
377
373
371
374
372
362
354
351
342
330
323
322
317
311
309
311
309
304
305
308
306
303
304
309
309
303
304
307
306
305
308
311
308
306
310
314
310
307
312
316
311
309
312
313
310
309
313
314
310
310
313
314
309
310
315
313
310
310
313
309
311
314
313
310
312
316
313
310
313
317
314
311
315
318
314
312
315
319
316
313
317
319
315
314
319
320
314
314
320
321
317
318
321
322
317
319
329
327
312
312
322
325
326
330
337
335
329
333
341
340
333
333
329
319
314
317
319
316
313
317
319
314
317
319
324
341
371
400
393
366
341
312
273
276
309
322
318
320
325
323
321
323
326
325
321
324
328
326
324
327
331
329
327
331
334
331
330
335
338
336
335
340
342
340
341
347
351
349
353
360
363
361
364
371
371
369
371
374
373
367
364
362
352
340
333
330
312
311
314
307
303
304
307
304
302
305
307
303
302
306
309
305
304
309
309
305
305
311
311
306
306
311
312
309
310
314
313
309
310
314
313
310
312
315
314
311
313
317
313
311
314
316
314
311
315
316
314
312
316
317
314
313
318
319
315
315
318
320
316
315
319
317
319
320
319
316
318
322
320
318
320
323
321
318
320
323
321
319
321
324
321
319
322
324
321
319
323
325
322
321
325
326
321
321
325
326
322
322
327
328
323
324
327
326
322
324
330
332
333
338
344
343
339
339
347
345
341
340
339
330
321
321
322
319
321
323
320
319
321
321
320
330
354
385
408
400
376
348
309
278
297
319
322
324
326
324
320
322
326
325
322
324
329
327
324
327
331
329
328
331
333
332
331
335
338
336
336
341
344
341
341
347
350
347
350
357
361
359
362
368
369
367
370
375
375
371
371
371
353
347
342
331
322
320
319
314
309
310
311
307
304
308
310
306
304
308
311
306
305
308
309
306
307
311
310
307
307
311
310
307
309
313
311
306
307
313
313
308
310
314
312
309
311
313
311
308
312
314
310
308
310
313
310
309
313
313
310
309
314
314
310
310
315
310
310
315
315
311
311
315
315
312
313
316
316
313
314
317
316
313
315
318
316
313
315
319
316
314
317
320
317
316
318
320
317
316
320
320
317
317
322
322
318
318
322
322
321
325
334
337
337
338
339
338
337
340
339
334
325
320
319
316
314
316
319
317
317
320
316
315
327
345
368
399
404
379
346
313
280
284
307
320
326
325
320
320
324
324
321
323
327
326
322
324
329
328
326
329
331
330
329
332
335
334
333
335
341
339
338
343
347
346
346
353
357
357
358
365
369
367
369
374
374
371
372
375
371
362
356
351
331
325
324
318
313
319
314
301
297
303
308
306
302
307
311
309
305
309
312
309
307
311
313
308
309
313
314
311
311
314
314
309
310
315
315
311
311
319
322
306
304
312
312
310
311
316
313
311
313
317
315
311
315
318
316
313
316
318
315
314
317
318
314
313
320
315
314
320
321
315
318
329
323
311
312
319
321
319
319
322
321
318
322
328
329
329
335
342
338
332
338
345
342
336
335
329
321
318
321
323
321
319
322
323
319
320
323
326
336
361
392
402
378
351
329
294
269
291
323
330
325
327
331
330
327
330
334
331
332
335
333
331
334
338
333
333
337
341
339
338
342
346
343
342
348
351
349
350
356
359
357
359
367
368
368
371
376
377
374
375
378
375
368
365
360
350
337
332
328
320
313
311
310
305
302
304
307
303
301
305
306
302
301
305
306
302
303
306
308
303
304
307
303
304
308
307
303
304
308
307
302
304
308
306
302
304
308
305
302
305
308
306
303
306
308
304
303
306
310
306
305
309
310
307
306
310
311
307
307
311
312
308
308
312
312
308
309
312
313
308
309
313
312
309
311
314
311
309
312
315
312
310
313
316
313
311
317
315
316
323
328
328
328
329
331
331
332
334
330
320
312
314
314
309
310
315
314
310
311
315
314
313
327
351
379
398
387
361
331
294
269
290
313
319
323
324
321
319
323
325
321
321
325
327
324
323
327
329
325
327
331
332
329
331
335
336
333
336
341
341
342
347
347
346
352
357
358
357
363
370
367
366
373
377
370
367
370
368
357
348
344
337
325
318
318
316
308
306
308
308
302
303
306
305
302
304
308
307
304
306
310
308
306
308
311
308
306
310
313
310
307
310
313
310
308
312
314
310
308
312
314
310
309
312
311
310
314
314
310
310
315
315
310
311
315
315
312
314
318
316
313
315
318
315
313
315
318
316
314
316
320
318
315
319
321
318
317
321
323
319
318
321
322
319
319
323
323
319
319
324
324
321
322
329
329
325
325
332
335
331
331
338
338
337
337
334
328
320
323
320
318
321
324
321
319
322
323
319
322
339
364
392
411
398
368
333
294
278
299
319
327
330
328
324
326
329
327
325
327
331
331
329
331
334
333
331
333
337
335
334
337
341
338
337
342
345
342
343
348
351
349
351
357
360
359
362
370
372
369
370
376
377
372
373
368
358
351
346
336
325
322
320
314
308
308
309
306
303
305
309
305
304
308
310
306
306
310
311
307
306
312
312
309
310
313
312
309
310
315
315
311
311
315
313
309
311
314
312
309
312
315
314
310
314
315
310
308
311
315
312
309
314
316
311
310
314
313
312
316
316
312
313
318
316
311
313
318
315
310
312
316
315
312
313
318
319
318
320
323
322
322
324
328
326
327
333
336
329
324
327
315
304
307
316
317
314
314
317
318
315
316
318
323
332
357
391
407
384
354
331
295
268
293
320
326
322
323
327
328
332
322
323
324
327
331
328
327
331
333
332
329
334
336
334
335
340
342
338
339
345
347
345
346
354
356
353
357
363
366
365
368
372
373
371
374
381
382
363
356
355
346
335
330
329
320
314
313
314
309
306
306
309
306
305
310
312
307
308
312
313
309
309
313
315
310
313
312
310
313
316
316
311
312
315
313
310
313
316
314
311
313
315
313
310
313
316
313
310
312
316
311
309
313
315
311
310
314
316
313
313
316
307
302
309
322
322
319
319
323
323
321
321
326
325
324
329
334
328
320
317
319
314
311
313
317
315
312
315
313
311
315
315
317
333
365
392
388
360
338
312
273
264
298
319
319
319
324
324
321
323
328
325
322
325
329
328
325
329
332
330
327
330
333
330
330
333
337
335
335
339
343
341
342
348
351
350
352
359
363
360
363
369
371
368
368
373
372
364
360
357
346
333
325
317
309
308
309
305
300
301
305
301
299
302
304
301
299
303
306
303
302
307
309
305
304
307
309
305
305
309
309
306
305
310
309
305
306
310
310
305
307
311
310
307
309
312
309
307
309
312
309
307
310
312
309
308
311
313
310
308
313
314
310
310
313
314
311
315
316
312
311
315
316
313
314
320
322
319
319
323
324
321
322
326
327
328
333
333
325
317
316
317
312
311
315
317
314
312
316
317
314
312
316
324
337
364
401
405
376
346
321
281
273
303
322
324
320
320
324
324
321
322
326
325
323
326
331
327
325
329
330
328
332
337
334
332
336
338
337
337
344
345
343
344
351
354
352
354
361
365
363
366
372
372
369
370
373
369
362
356
353
342
331
327
324
316
310
310
311
307
304
307
310
306
304
307
309
306
305
309
311
307
307
312
312
308
308
311
313
310
310
314
314
310
315
313
309
311
314
313
310
311
314
312
309
311
314
313
309
312
314
312
312
315
316
312
311
314
317
314
314
316
319
315
314
318
318
314
315
318
319
314
316
320
319
316
317
321
320
316
318
321
320
317
319
321
319
317
319
322
318
316
319
322
319
317
321
322
317
322
322
318
318
323
326
322
323
327
328
324
325
331
333
331
335
338
332
322
319
321
318
316
319
322
319
318
320
324
321
317
320
328
338
360
398
418
396
363
336
299
277
300
323
329
324
323
327
328
325
325
329
330
326
327
332
331
329
332
336
334
331
334
337
336
339
344
342
340
344
348
347
347
352
356
356
356
363
368
366
368
374
376
373
374
377
376
369
365
364
356
343
336
334
326
317
314
315
312
308
309
312
309
306
308
312
309
306
310
313
310
309
312
313
310
309
313
315
311
310
314
315
311
309
313
313
310
315
315
311
312
316
315
310
311
316
313
310
312
316
314
310
313
316
313
311
314
317
314
312
315
318
314
313
317
318
315
314
318
321
315
315
319
320
315
315
320
320
316
317
320
320
317
318
321
319
316
317
321
319
317
320
322
320
317
320
324
320
318
321
325
324
326
329
329
329
333
334
334
336
340
337
329
322
323
321
317
318
322
322
319
322
331
319
310
314
320
327
345
375
407
405
376
346
318
279
278
310
328
326
325
328
330
328
328
333
335
331
329
333
336
335
341
337
331
329
333
339
341
338
340
345
345
344
347
350
350
356
361
359
359
365
372
375
377
372
371
373
376
380
382
376
373
371
364
353
344
341
334
325
321
322
320
314
314
317
316
311
312
318
323
316
307
309
311
311
314
317
316
314
317
321
317
315
318
322
319
316
320
322
318
316
320
322
322
322
314
314
313
319
321
316
315
320
320
317
317
320
320
319
326
319
313
312
318
321
320
316
319
323
320
318
321
323
321
322
326
327
325
325
328
330
327
328
337
346
333
320
321
321
317
316
319
319
316
318
322
321
317
320
323
321
319
336
363
385
388
371
353
327
291
271
293
326
333
329
318
319
325
329
326
326
330
331
329
328
333
335
331
330
336
336
332
334
338
338
336
339
344
345
343
346
352
352
351
359
370
360
354
362
370
370
367
369
373
369
366
364
360
349
339
335
329
318
312
313
310
304
304
307
306
300
299
303
303
301
301
304
301
303
307
304
302
305
309
306
303
306
309
306
305
307
308
305
304
307
310
306
304
308
309
305
304
308
309
305
304
308
309
304
305
309
308
303
305
310
309
305
307
311
308
306
311
315
313
311
316
317
314
315
321
327
325
320
318
315
308
304
308
310
307
311
312
308
307
310
311
307
311
328
350
374
389
373
346
318
283
264
285
306
314
318
317
315
317
321
318
316
320
323
320
319
323
326
324
322
327
330
327
326
331
333
329
329
335
337
334
335
341
344
342
344
350
353
352
356
364
364
362
364
369
367
363
363
362
341
336
331
321
313
311
310
304
300
303
305
301
298
301
303
300
301
305
305
301
302
307
307
303
303
308
308
303
305
310
308
305
306
310
309
305
307
311
309
306
309
311
308
306
308
312
308
305
309
310
307
305
310
311
306
306
310
311
307
307
311
312
308
307
311
307
307
312
311
308
309
313
312
308
310
315
312
308
310
315
313
309
312
315
313
310
314
317
313
311
316
317
313
312
316
317
314
313
315
317
313
314
319
319
318
319
322
321
321
323
326
326
324
328
335
333
326
323
322
317
312
314
319
316
314
317
320
317
317
319
319
329
355
390
408
393
370
343
301
275
297
318
320
321
326
325
321
322
325
325
322
324
329
328
324
326
330
329
327
331
335
332
330
334
339
337
335
340
345
343
343
347
351
349
351
358
361
360
362
369
373
370
370
375
376
370
369
368
361
350
343
339
321
318
318
312
307
308
311
307
305
308
310
308
305
308
311
307
306
309
311
307
306
310
311
308
308
312
313
308
308
312
314
309
310
314
313
309
310
314
313
309
311
314
312
308
311
315
313
310
313
317
315
311
314
317
314
312
316
317
313
312
317
318
314
314
318
314
315
319
319
315
316
321
320
316
317
322
321
317
317
321
321
316
318
322
319
316
319
322
320
318
321
323
319
318
322
325
322
320
323
325
321
321
324
324
320
321
325
324
321
321
324
324
321
323
330
333
330
331
338
339
334
338
344
342
338
337
334
325
322
324
321
318
322
324
320
318
322
326
330
344
376
411
409
386
361
327
286
289
317
327
325
325
328
327
324
326
329
328
326
326
330
330
327
329
333
331
330
333
336
335
334
338
342
340
338
343
346
344
345
352
355
353
354
360
364
363
366
373
375
372
375
380
371
370
369
359
348
341
337
328
320
323
326
309
300
303
309
306
303
307
310
306
305
308
311
306
305
309
311
307
307
311
313
308
308
313
313
310
310
316
321
314
305
308
310
308
310
314
312
309
313
315
312
311
314
315
312
310
313
316
313
311
314
317
314
311
317
315
313
317
319
320
319
313
313
311
314
319
318
314
315
320
318
315
317
322
320
317
320
323
320
317
320
324
321
319
322
325
320
318
323
331
332
323
328
337
335
332
339
342
340
338
338
332
322
320
323
322
318
320
322
320
319
322
324
321
321
339
369
395
387
361
330
291
273
298
320
326
335
328
319
320
327
331
327
327
332
333
329
328
333
335
331
332
337
337
335
337
341
342
339
341
347
345
344
348
353
354
351
356
363
363
364
370
375
373
373
377
380
376
373
372
369
358
347
343
337
325
319
318
316
308
307
310
304
304
308
307
302
305
310
308
306
307
311
308
305
308
313
310
308
311
314
311
308
311
313
310
308
312
314
310
308
312
314
309
309
313
313
308
307
311
311
307
307
312
311
308
309
313
311
308
309
312
311
308
311
313
311
308
311
315
311
307
312
314
311
309
316
312
311
316
317
312
313
316
317
313
314
318
317
314
314
318
317
314
316
320
319
320
326
331
332
327
328
334
336
333
334
332
322
314
315
318
314
313
315
317
313
312
315
315
314
323
347
376
399
393
370
342
306
270
283
311
318
319
322
321
317
318
323
322
323
327
325
322
324
328
326
324
328
332
329
326
332
335
332
332
336
339
337
337
343
347
345
347
353
356
355
359
367
368
365
368
373
372
367
366
367
358
347
339
334
325
316
313
312
307
303
304
306
302
299
302
304
299
299
303
306
302
302
305
306
303
302
306
304
305
310
309
306
307
312
310
306
307
312
311
307
309
312
310
307
310
314
312
308
311
315
312
310
313
315
311
309
314
315
311
310
314
317
313
312
316
316
312
314
316
315
313
314
318
317
313
315
318
318
314
316
320
318
314
318
321
318
316
319
321
320
317
323
319
317
321
324
319
318
322
323
320
318
322
323
319
319
324
324
320
322
326
326
327
331
340
339
333
334
341
343
337
335
334
323
316
319
322
320
317
319
322
319
317
319
320
324
338
368
403
410
388
362
331
288
280
309
324
322
322
325
325
323
325
328
327
325
330
328
325
327
332
331
328
332
336
334
333
336
339
336
336
341
344
342
342
347
351
349
352
358
363
362
363
370
373
371
372
377
376
372
370
370
361
349
341
339
330
319
317
318
312
307
308
310
307
304
306
309
307
304
307
310
307
305
309
311
306
306
310
308
308
312
311
307
308
313
313
309
310
313
313
308
310
315
313
309
313
317
313
310
312
316
313
311
313
315
311
310
314
317
314
311
315
317
314
314
317
318
314
314
319
320
314
315
319
319
316
317
321
320
316
318
322
321
316
320
323
321
317
319
322
319
318
324
321
318
322
324
320
319
324
326
321
320
324
327
324
327
333
337
336
334
338
342
341
339
339
334
323
319
322
320
318
319
323
322
323
328
320
312
318
340
369
398
406
386
358
325
284
277
307
321
322
326
328
324
324
328
328
325
327
332
331
328
329
334
333
331
336
336
332
336
341
340
337
340
345
347
352
350
345
345
349
358
364
363
365
371
376
372
373
379
380
377
374
376
372
361
354
349
342
331
325
325
321
313
312
315
314
310
309
312
313
317
317
308
304
306
310
315
311
309
313
316
314
312
316
318
314
312
315
314
313
317
316
312
312
316
316
312
312
317
316
310
312
315
314
311
313
317
314
310
311
316
314
312
315
318
314
311
313
316
313
311
315
317
314
313
316
318
315
314
317
318
314
313
318
320
316
315
319
318
314
317
320
317
314
316
320
319
317
322
330
331
331
333
332
332
335
335
328
317
315
316
311
309
314
315
312
310
315
316
311
315
333
358
383
394
375
343
313
279
265
288
309
317
322
320
318
320
323
322
318
321
325
323
320
324
327
324
322
326
330
327
327
331
334
331
330
335
338
335
335
342
345
342
344
351
354
357
364
367
366
368
372
371
367
368
369
363
352
344
339
328
317
314
313
307
301
302
303
299
296
300
302
298
297
301
303
299
298
302
304
301
301
305
306
302
303
308
307
303
304
308
307
303
305
310
308
304
306
310
308
305
306
309
308
305
307
310
307
305
310
308
306
310
312
308
308
312
313
310
309
314
313
309
310
314
314
310
311
315
315
310
312
316
315
313
316
319
317
313
316
319
316
314
316
319
316
315
318
321
317
315
319
320
316
316
320
322
318
317
321
322
319
319
324
328
327
331
338
338
330
334
344
343
336
331
322
317
319
322
320
316
320
323
318
316
320
326
335
356
392
417
397
366
340
303
275
295
321
327
322
321
325
325
323
323
328
329
324
325
329
329
325
329
332
333
330
332
336
334
331
336
342
338
337
342
346
344
344
349
354
353
355
361
364
363
365
371
374
372
376
375
370
367
365
357
344
337
332
325
316
314
315
311
305
307
310
308
305
307
309
306
304
307
310
307
305
308
311
307
307
310
312
308
308
312
313
309
309
314
313
309
310
314
314
312
311
315
314
311
312
316
313
309
312
315
312
309
312
315
312
309
313
312
310
313
316
312
311
315
317
313
311
315
315
312
314
317
318
314
314
318
318
315
316
320
319
314
316
321
320
316
319
323
320
317
319
322
320
318
320
323
320
319
323
325
322
321
328
333
333
334
337
336
335
339
343
342
335
327
323
320
316
318
322
319
316
322
319
314
320
337
359
388
413
409
370
326
293
275
293
315
326
329
324
321
326
328
325
324
330
331
326
326
331
333
328
329
336
337
334
339
347
336
330
337
344
343
341
345
352
353
351
357
363
363
362
369
375
375
374
378
383
381
379
380
381
372
366
364
364
328
328
327
321
317
319
316
312
312
316
315
310
311
315
314
312
314
318
316
312
314
319
317
320
317
312
310
311
317
320
316
314
318
320
317
317
320
321
317
316
320
321
316
316
320
320
316
316
320
321
323
319
314
314
313
317
322
319
315
317
321
320
317
320
320
318
321
323
320
318
322
323
319
317
321
322
317
317
322
325
323
324
328
329
327
328
334
334
330
335
342
336
327
323
322
319
315
317
321
319
316
318
321
318
316
320
322
325
341
373
399
390
362
338
312
274
269
304
325
323
322
326
328
324
325
329
328
325
332
331
327
330
335
333
330
333
337
336
333
336
340
338
337
341
346
344
343
349
353
353
353
359
365
364
365
371
373
371
371
376
375
369
365
363
354
341
333
329
322
313
310
309
306
301
301
305
302
298
300
304
302
299
304
306
304
302
305
308
305
303
306
308
303
309
309
305
305
309
309
305
306
310
310
307
306
309
309
306
307
310
310
306
308
311
309
305
308
312
309
306
309
313
310
307
310
313
310
307
312
314
310
308
312
314
309
310
316
319
316
315
319
322
320
320
325
327
326
330
332
327
318
314
317
313
310
312
315
312
314
318
314
312
314
319
330
352
388
408
385
354
331
294
268
292
318
324
320
319
323
323
319
319
324
325
322
323
328
327
324
326
331
330
327
330
334
333
330
334
339
337
336
339
344
343
343
348
353
352
352
359
364
363
364
370
372
369
369
373
372
364
356
347
335
328
327
320
312
310
311
308
304
305
307
304
302
304
307
305
302
306
310
306
303
307
310
307
305
308
311
308
308
311
313
309
308
312
313
309
309
313
313
310
311
314
313
309
311
315
314
310
311
315
313
310
312
316
313
311
315
317
314
312
315
318
313
317
318
315
313
317
318
314
314
318
319
315
315
319
319
316
316
320
320
316
317
320
320
316
318
321
319
317
322
327
324
321
326
331
328
326
331
337
337
333
331
326
318
315
319
321
317
316
320
321
316
316
321
321
316
322
341
365
394
413
399
368
331
291
300
317
323
327
323
320
323
326
324
323
326
329
326
325
328
330
326
327
332
334
331
331
336
338
334
334
340
342
340
343
348
349
347
350
358
359
359
363
369
369
367
371
376
375
371
372
372
365
356
351
345
334
324
321
320
312
308
310
310
305
304
307
308
304
308
308
303
304
309
309
305
307
312
310
306
308
311
311
307
310
313
311
308
310
314
311
308
311
314
311
308
311
313
310
310
313
314
310
310
313
314
311
312
316
316
311
311
316
315
313
313
316
318
322
317
312
312
311
313
317
315
313
316
320
317
313
315
320
315
318
321
318
317
320
321
317
317
320
322
318
318
321
322
318
319
330
331
317
316
324
327
325
327
332
333
331
336
340
333
324
322
323
320
318
320
324
321
319
323
325
321
319
321
326
336
362
401
416
386
356
334
301
271
289
321
329
326
327
330
330
327
329
333
331
333
337
336
333
336
341
338
336
339
341
339
340
344
348
346
348
356
348
342
346
355
360
358
361
367
371
370
372
378
381
377
378
381
379
373
372
370
360
347
340
336
330
323
320
321
314
309
312
317
318
304
301
308
308
306
309
312
310
309
313
315
311
315
317
311
312
317
317
311
313
318
317
313
314
316
315
311
312
316
315
310
313
317
315
311
314
317
314
311
314
317
314
311
313
317
314
312
316
318
314
313
317
318
314
313
317
317
312
313
317
317
314
315
319
320
319
321
324
323
320
322
328
326
325
331
335
322
320
319
315
312
315
317
313
312
316
317
313
312
317
317
316
330
359
388
394
373
349
322
283
263
290
316
318
320
325
323
320
321
325
324
322
326
330
327
325
327
331
329
328
332
335
332
330
336
338
335
334
340
343
341
343
349
351
350
352
358
361
360
363
371
369
371
376
374
368
365
363
354
341
334
330
321
313
311
311
306
302
303
306
301
299
301
302
298
298
304
306
302
301
306
306
303
304
308
308
304
306
310
309
305
306
311
310
305
307
311
310
305
307
310
308
307
310
312
308
305
310
312
308
305
309
312
309
311
312
308
307
312
312
308
308
313
313
309
309
315
314
309
310
315
314
310
311
315
314
311
314
317
315
312
315
318
315
312
316
320
316
314
317
320
320
320
322
324
323
323
326
329
325
327
335
336
328
323
322
319
312
313
318
317
314
316
319
317
313
316
319
324
345
379
409
405
382
354
317
276
285
312
320
320
324
325
321
320
324
325
321
321
326
326
323
323
327
328
325
326
332
332
329
332
336
336
334
337
342
341
339
344
350
350
349
354
360
359
361
367
372
370
369
374
376
372
368
370
366
355
345
342
335
323
317
314
307
306
308
307
304
305
309
307
304
305
308
306
304
306
310
307
304
307
311
308
306
309
311
308
307
310
312
308
307
311
313
309
308
313
313
309
310
314
313
309
310
314
313
309
311
315
315
311
314
317
315
312
314
318
315
311
315
318
315
313
315
317
315
318
320
316
314
318
320
317
316
320
320
317
318
320
321
318
320
324
321
318
321
325
323
319
321
326
325
323
327
330
329
334
334
327
324
326
334
340
334
328
327
325
318
316
320
322
318
317
321
323
319
319
323
320
318
331
358
387
406
396
372
340
301
272
294
331
324
321
320
321
324
329
328
326
329
333
330
329
334
337
335
334
337
340
336
337
342
343
338
340
346
348
347
349
355
362
351
349
359
363
363
368
374
375
373
376
380
378
375
374
375
367
357
350
345
335
328
332
319
307
307
313
314
309
308
312
313
308
308
312
309
308
313
314
310
313
316
318
319
309
310
312
312
314
317
315
313
315
318
315
314
318
320
316
313
317
319
316
315
318
323
320
308
311
317
315
316
320
319
316
316
320
320
317
317
322
321
317
320
326
326
322
324
333
339
325
322
329
331
332
337
338
330
323
326
321
320
324
326
323
323
327
325
320
323
334
325
326
352
386
396
376
355
337
305
275
290
322
332
327
330
336
334
331
334
339
335
333
345
342
330
329
337
341
338
337
342
345
343
342
347
350
346
347
352
355
352
354
360
362
361
364
371
374
371
375
386
368
373
380
376
370
367
363
351
341
336
333
323
316
316
317
312
308
310
313
308
305
310
311
307
306
308
311
310
312
318
309
302
305
312
312
309
310
314
314
310
311
315
314
310
311
314
312
310
313
315
312
308
312
314
310
308
311
314
310
309
312
314
311
311
318
315
314
321
320
316
318
324
326
327
325
323
317
310
309
312
311
308
309
313
312
307
309
313
310
309
312
318
328
349
377
390
368
341
321
288
260
278
310
319
314
314
318
319
315
317
322
321
317
319
324
324
320
322
327
326
323
325
330
329
326
329
334
331
334
338
337
336
341
346
345
346
352
357
355
356
362
365
363
361
364
363
354
346
341
332
321
314
314
310
303
302
304
301
296
299
301
299
295
299
302
300
298
301
304
301
300
304
306
303
301
305
307
304
303
307
308
303
303
307
308
304
304
309
308
305
305
309
304
305
311
308
304
306
309
308
304
307
311
309
306
308
311
309
307
310
313
310
308
311
313
310
309
313
315
311
310
315
315
311
311
315
316
311
311
314
314
311
312
316
316
313
315
322
321
317
319
326
323
320
324
329
328
329
331
328
319
313
315
317
314
313
319
315
315
318
318
314
312
320
331
346
378
406
397
368
340
307
278
291
313
324
322
318
319
322
320
318
321
324
322
320
324
328
325
322
326
330
327
326
330
332
330
330
334
336
334
334
340
342
340
341
348
351
349
353
360
361
359
364
370
370
366
369
371
367
356
351
340
330
326
324
316
310
309
310
305
304
307
308
304
302
307
309
304
303
308
308
304
305
309
309
305
306
310
310
307
309
311
309
305
308
313
311
308
310
314
312
309
312
314
311
308
311
314
310
308
312
313
310
309
313
314
311
310
314
315
311
311
316
311
311
316
315
312
313
317
316
313
314
319
316
313
316
320
318
315
318
321
318
316
318
321
317
314
318
320
317
316
319
322
318
317
322
322
319
319
323
323
320
320
324
323
320
322
325
324
320
320
325
324
321
323
327
324
321
325
331
331
330
332
335
336
336
342
342
340
341
339
329
320
323
324
319
319
324
324
320
320
322
320
320
332
357
391
413
404
382
350
308
284
304
320
323
327
329
325
322
326
330
326
324
327
330
327
325
330
332
328
327
332
334
331
331
336
337
335
336
342
344
341
343
348
350
347
351
358
359
363
369
370
369
373
377
374
372
373
373
365
354
350
345
334
325
324
321
314
310
313
313
307
306
311
311
311
313
306
303
301
304
310
310
306
306
311
310
307
309
313
311
309
310
314
312
310
312
315
311
310
313
315
312
309
313
316
315
319
313
308
306
310
315
311
311
316
318
314
314
317
318
313
314
319
318
314
315
320
317
316
318
320
318
315
319
327
323
311
312
319
318
316
320
323
320
320
323
324
323
325
333
338
337
335
337
340
338
338
339
335
323
320
330
324
309
311
320
319
315
318
321
319
318
331
355
379
397
367
336
304
275
286
313
324
326
328
325
324
328
330
327
326
331
332
329
330
335
337
334
335
339
338
334
338
349
344
332
335
344
345
344
349
354
353
353
358
363
363
364
370
376
373
373
378
381
377
374
376
372
360
351
346
338
327
322
323
318
311
310
312
310
306
310
308
305
308
312
310
307
310
313
312
309
312
315
313
310
313
316
312
311
315
317
313
311
316
317
312
313
315
315
310
311
315
314
309
310
314
314
309
311
315
314
310
311
315
313
310
312
315
313
310
313
316
313
310
314
316
312
310
314
315
311
311
315
312
313
316
316
312
312
316
317
314
319
326
328
328
330
331
332
332
336
335
329
320
315
316
314
309
312
316
312
310
312
316
311
310
321
340
363
390
392
368
337
309
275
275
299
314
321
321
316
316
320
320
317
318
323
322
319
320
325
324
322
324
329
327
324
333
330
329
333
336
335
333
338
343
341
342
348
352
350
354
361
364
363
364
369
370
366
366
368
364
354
348
343
333
322
318
316
311
304
304
307
305
301
302
305
302
300
304
307
303
302
305
309
306
304
308
309
306
306
310
312
308
308
312
312
307
307
312
312
308
313
312
308
310
313
310
308
310
313
311
307
310
312
311
309
311
314
311
309
313
316
313
311
315
316
313
311
316
318
314
314
317
317
313
314
318
317
314
315
318
317
313
316
320
318
316
317
321
320
316
318
320
318
316
319
322
320
317
319
322
319
318
321
319
318
323
328
327
331
337
339
336
335
340
342
337
335
336
331
319
316
318
316
314
315
319
317
315
315
319
317
320
337
366
398
406
389
362
326
285
282
307
317
318
321
321
316
316
321
322
319
319
323
323
320
322
326
327
324
325
331
331
327
329
335
334
332
339
338
337
341
346
345
345
351
356
356
357
363
368
365
365
371
372
368
367
367
365
354
346
340
334
323
317
317
314
306
305
308
305
301
303
307
306
302
304
308
306
303
306
309
306
303
306
309
307
304
308
310
307
305
308
311
307
305
310
310
307
308
313
314
309
313
312
308
308
313
313
309
311
315
312
309
311
316
313
310
312
316
313
311
313
316
313
310
314
317
313
310
314
316
313
312
316
318
314
313
317
318
314
314
318
318
314
317
320
319
314
316
320
319
316
317
321
320
316
319
322
319
316
320
327
327
330
336
336
334
339
342
337
333
334
328
317
315
319
319
315
315
319
319
314
315
318
318
322
343
376
401
395
371
345
312
273
279
312
322
320
322
326
324
322
324
327
324
323
327
330
326
326
330
333
330
329
334
335
333
333
338
340
336
338
344
346
343
345
351
352
351
361
362
362
367
372
371
369
372
377
374
370
369
366
355
346
342
337
326
318
319
319
318
310
303
305
303
304
308
309
304
305
310
311
307
308
313
313
309
311
315
314
312
313
318
315
312
313
317
315
311
313
318
314
311
314
316
313
312
315
317
313
311
316
318
313
317
317
313
312
317
317
313
314
319
318
314
316
321
320
316
316
321
319
315
318
322
320
315
319
323
320
319
326
333
332
334
336
334
334
336
341
340
332
323
320
318
315
315
319
320
316
316
319
320
316
317
329
345
367
390
385
357
329
306
276
273
302
322
325
323
326
328
324
322
326
330
328
327
331
332
329
328
333
334
331
333
337
338
335
337
342
343
341
343
348
348
347
351
357
358
358
363
370
370
368
372
376
374
371
374
374
366
357
352
346
333
325
322
319
312
309
311
310
304
303
306
306
302
302
307
307
305
310
309
306
308
312
311
307
310
314
311
308
310
313
311
308
311
314
309
307
309
313
310
308
311
313
309
308
312
314
310
309
313
313
309
309
313
313
309
310
314
312
310
311
315
314
310
312
315
313
310
314
318
315
312
315
317
314
312
316
319
316
315
318
320
315
318
320
317
316
320
321
318
318
321
320
317
318
322
321
318
320
326
327
323
325
331
334
331
333
338
338
336
336
335
327
320
319
320
317
315
319
320
317
315
319
320
315
318
333
352
379
404
398
371
338
304
279
295
313
322
327
324
320
321
325
323
321
324
326
322
326
331
329
327
330
334
331
330
333
336
334
333
337
340
338
339
345
347
345
348
353
356
354
356
363
364
362
366
371
371
367
367
369
366
357
352
347
335
325
323
321
313
307
307
309
304
302
305
308
304
302
306
307
304
304
308
310
306
305
309
309
306
311
310
306
308
313
311
308
308
312
310
307
310
314
312
308
311
314
312
309
311
314
310
309
312
314
310
308
313
315
311
310
314
314
311
311
315
316
311
312
316
315
311
311
316
315
