324
328
334
334
335
339
345
344
341
347
353
350
346
347
348
339
330
330
333
329
327
331
333
328
326
329
331
350
384
414
417
397
373
344
301
281
305
328
329
331
338
337
332
334
339
338
334
336
340
337
334
338
343
339
336
340
345
342
339
343
348
344
343
349
352
349
349
355
358
356
357
365
369
367
368
376
379
380
383
387
386
380
380
384
378
368
363
358
346
334
332
324
319
321
323
317
313
317
320
316
314
320
322
316
313
317
319
314
315
322
322
318
316
319
319
315
315
321
321
317
318
323
320
314
318
324
322
316
317
320
320
316
318
321
318
317
320
321
318
316
320
322
318
316
321
321
317
314
320
322
319
318
322
322
317
323
322
316
318
323
324
319
321
324
321
319
320
325
322
318
320
323
319
317
322
326
321
317
321
325
322
316
322
325
320
318
324
328
327
330
335
335
335
336
340
343
338
338
339
336
328
323
324
320
315
316
322
320
314
315
316
314
320
342
375
403
402
383
326
283
277
304
314
313
319
321
318
316
320
321
316
315
321
324
317
317
323
324
319
319
324
324
323
325
331
330
325
327
332
333
331
333
338
337
336
340
346
346
345
351
357
357
359
362
364
359
358
364
364
356
348
346
338
325
319
316
313
305
303
305
301
299
304
301
295
297
303
302
298
299
304
302
298
300
305
305
301
302
306
304
301
305
307
304
302
306
310
305
303
309
311
306
308
311
311
306
304
307
310
307
306
312
309
306
307
311
310
305
304
311
309
304
305
310
309
304
307
311
308
305
309
312
309
305
311
315
304
308
314
312
307
312
315
310
309
313
314
311
311
316
317
314
312
316
315
311
312
319
318
313
313
320
319
313
316
323
326
327
331
334
330
330
335
341
338
335
336
337
329
320
320
320
315
312
320
324
316
311
313
313
315
330
363
400
417
403
378
346
301
272
314
315
318
324
321
317
319
322
321
318
322
325
321
319
325
328
325
323
327
331
328
325
330
335
330
329
334
337
334
335
341
343
341
342
349
351
350
352
361
364
362
363
370
371
369
369
375
368
358
355
352
340
330
324
321
313
307
309
310
305
301
305
308
303
305
308
305
303
306
309
306
304
309
308
304
304
310
311
305
306
310
310
306
307
310
308
305
307
312
311
306
309
313
311
307
310
313
309
305
309
311
308
305
311
313
307
303
309
313
308
307
311
312
306
307
314
314
309
308
312
314
311
311
314
312
310
311
316
310
311
317
315
310
314
318
314
310
314
317
314
312
315
318
315
311
315
318
315
313
318
321
318
318
326
330
329
327
335
338
334
334
342
342
335
331
334
327
318
316
319
318
314
316
321
320
313
314
324
337
360
396
418
399
365
337
306
277
290
316
326
322
321
327
324
322
327
330
325
325
331
334
328
328
333
333
331
333
338
336
331
334
340
340
337
340
346
346
343
349
356
355
353
357
363
363
361
369
377
374
371
376
380
375
373
376
371
360
351
347
341
330
323
323
319
312
310
316
314
310
310
314
313
308
310
315
313
312
316
312
308
312
318
314
310
314
318
315
310
315
317
312
311
315
319
314
313
317
320
315
314
317
318
317
315
319
320
313
311
319
318
311
312
318
317
313
314
319
318
313
316
319
317
313
316
322
317
314
317
321
317
314
319
322
318
317
322
326
322
323
331
324
325
332
337
334
330
331
325
316
316
321
319
312
313
321
322
314
315
320
317
312
321
346
371
390
390
370
342
312
280
273
293
312
318
322
319
318
325
326
321
320
325
326
321
322
327
329
325
324
330
331
329
327
332
332
331
333
336
337
335
339
345
345
342
351
351
352
359
365
362
362
367
373
374
371
372
374
369
361
355
347
335
327
325
319
310
307
309
308
305
311
310
301
295
298
306
303
299
300
305
306
303
305
309
306
302
306
311
309
306
308
314
313
307
307
311
310
307
311
312
308
308
313
315
312
310
318
325
303
311
315
313
315
322
321
317
319
326
330
327
325
328
321
314
312
315
314
310
310
315
313
310
313
316
312
314
319
316
322
351
383
388
364
338
317
285
264
281
309
320
316
316
321
323
320
322
328
325
322
322
326
325
323
324
330
330
325
329
334
330
329
341
331
328
334
340
338
336
342
348
348
349
354
360
359
358
366
370
366
365
371
372
365
359
357
350
336
325
323
318
308
306
308
304
299
300
305
303
298
299
304
301
295
299
304
301
299
301
304
302
301
305
307
303
302
307
309
304
303
308
309
304
304
308
310
305
310
310
305
306
311
310
308
309
315
316
314
315
318
316
315
321
326
322
313
309
308
304
301
303
308
304
300
304
309
304
300
304
304
299
305
330
358
376
373
357
334
303
266
262
286
302
306
310
311
309
311
315
313
309
311
317
315
311
313
319
316
313
317
320
315
320
325
322
320
326
329
327
326
331
332
333
335
341
342
341
344
351
354
352
353
360
362
357
356
358
349
337
332
329
320
310
309
309
303
297
299
302
300
297
299
302
299
294
298
301
298
295
300
303
300
300
304
305
301
300
305
306
302
301
306
308
302
302
308
304
304
308
308
305
305
310
309
304
306
311
309
304
308
313
309
307
311
313
310
308
313
314
311
309
313
315
312
310
315
317
313
311
316
316
312
312
319
319
316
317
321
320
318
321
327
326
323
328
336
333
325
323
323
317
311
313
317
315
313
315
319
317
313
317
314
321
344
373
394
388
375
355
321
280
286
308
314
316
322
322
318
319
326
324
319
320
326
325
320
322
327
326
324
325
330
327
323
329
334
331
330
335
338
334
333
339
344
342
341
348
352
350
352
357
360
358
360
368
370
365
364
368
364
353
347
344
326
320
320
317
310
310
314
312
307
308
312
310
307
310
313
310
307
312
316
311
309
313
318
312
307
313
315
312
311
317
317
312
309
315
317
312
311
317
316
311
314
319
316
314
315
319
316
313
317
319
315
314
317
320
316
313
317
322
319
315
318
320
318
316
322
318
316
322
324
319
316
321
321
318
320
323
321
316
316
321
321
317
318
323
322
318
319
325
321
317
322
323
320
317
322
326
323
319
320
324
321
318
323
325
319
317
324
325
320
320
323
326
322
321
326
326
320
319
326
325
320
321
326
324
320
321
325
324
322
328
327
325
327
333
332
331
335
338
335
335
340
343
336
329
329
326
319
315
319
321
318
315
320
320
314
311
320
328
342
371
409
412
387
361
336
294
284
303
318
320
318
318
320
317
314
317
323
320
317
320
324
320
319
322
324
320
318
324
329
325
322
328
328
326
333
336
333
334
340
343
342
345
351
352
350
353
361
361
360
363
368
368
364
365
364
355
345
340
337
327
316
314
316
309
304
307
308
302
299
305
308
304
302
306
307
303
302
307
307
302
302
309
307
301
303
308
307
304
306
311
310
306
307
311
309
306
313
309
305
307
314
311
308
311
313
311
308
311
313
310
307
313
316
312
310
314
315
310
307
313
313
310
310
315
316
310
309
314
314
308
310
316
313
309
311
317
316
313
315
318
314
311
316
319
315
311
315
318
314
313
319
323
320
316
323
328
324
323
328
333
334
334
328
318
314
316
318
313
312
318
319
315
315
319
315
310
314
328
344
367
402
411
387
355
327
290
280
298
315
323
322
319
322
324
321
319
324
326
322
321
324
326
323
323
326
327
325
325
332
332
328
330
335
335
331
333
339
338
337
343
350
346
344
350
361
360
365
370
370
369
375
377
372
367
364
359
348
337
333
327
317
312
314
313
307
304
307
309
304
304
308
308
304
305
310
309
303
304
310
309
306
307
311
308
306
309
314
310
306
310
313
310
308
312
315
310
308
312
315
311
310
316
316
310
309
315
316
310
316
318
314
316
321
320
317
319
322
322
321
327
336
335
327
325
323
316
308
311
315
312
310
315
318
313
308
313
314
308
308
321
346
372
400
402
378
344
307
274
281
301
310
317
319
314
315
321
320
315
317
322
320
317
318
322
322
317
321
326
324
319
323
330
325
329
333
330
328
335
339
337
336
343
348
348
348
356
361
360
360
367
369
365
367
370
366
354
348
343
332
321
316
316
310
303
303
307
304
299
302
305
301
297
300
305
303
300
303
307
303
300
305
308
304
303
308
310
306
305
309
310
306
307
312
312
309
308
314
308
309
315
312
308
310
315
312
307
310
315
312
309
312
317
314
312
318
323
320
316
322
327
323
322
331
336
334
334
335
332
321
315
318
319
316
314
318
319
313
312
318
318
313
311
320
334
357
396
424
406
368
337
299
271
286
313
324
321
319
322
326
321
322
325
322
320
324
327
323
323
330
332
326
324
330
332
329
329
336
338
335
334
341
341
338
342
350
351
349
353
362
362
361
366
373
372
370
373
377
373
364
360
355
343
332
325
323
315
310
312
312
308
303
306
308
305
304
308
308
303
303
310
311
305
305
311
305
307
314
313
309
312
316
313
309
311
317
314
309
313
317
313
310
314
316
315
311
314
317
313
311
317
318
313
313
318
318
314
314
319
320
316
319
322
319
314
318
321
320
315
317
324
322
317
319
324
321
319
320
324
322
319
324
327
322
319
323
327
326
326
331
328
329
335
336
335
339
347
345
336
331
330
327
320
320
327
328
324
323
328
327
322
324
325
329
341
368
402
418
397
368
344
308
279
299
327
329
327
334
340
336
332
336
339
336
334
340
343
340
338
343
346
341
342
349
349
342
345
352
353
348
352
358
357
356
363
363
361
366
373
373
371
378
385
384
381
384
388
386
383
384
382
368
356
353
348
337
330
330
328
321
319
322
320
313
314
321
319
313
315
320
317
313
315
320
317
312
314
319
317
314
317
318
316
313
317
318
315
313
317
320
316
313
318
321
315
311
316
316
312
317
319
314
313
317
316
312
312
317
318
311
311
316
316
312
314
320
318
315
320
323
320
317
321
329
329
325
326
326
316
309
311
313
308
306
312
317
311
308
309
311
307
304
308
320
340
368
394
385
355
329
303
268
266
294
312
313
310
313
319
317
314
318
315
313
317
321
317
315
320
323
319
317
321
326
323
322
328
332
328
326
331
334
332
333
341
345
341
341
351
354
352
354
361
362
359
361
365
363
356
352
348
336
323
319
318
310
303
303
304
299
297
300
302
298
296
297
300
296
294
299
302
296
296
302
303
299
303
304
300
302
306
307
302
303
308
309
305
307
312
310
304
305
311
310
306
307
311
310
307
308
312
309
306
312
315
310
306
310
314
310
307
311
313
309
308
313
313
309
308
313
316
308
308
314
315
311
313
318
315
310
314
321
317
312
315
321
317
314
317
318
314
316
321
318
314
319
324
318
314
318
322
318
317
320
322
318
318
323
325
320
319
324
324
318
320
328
330
323
323
331
331
327
330
337
338
337
338
339
332
322
321
324
321
317
320
324
321
319
322
324
316
311
324
343
366
399
412
393
360
332
297
281
298
323
325
321
320
325
325
321
324
329
326
321
325
331
327
323
326
330
329
326
330
335
333
330
334
339
337
335
340
344
338
338
346
352
350
350
356
360
358
360
366
370
367
368
373
373
368
363
363
352
338
331
330
322
312
310
313
309
304
308
309
305
302
306
311
304
308
312
306
303
306
310
306
305
308
311
306
306
312
314
310
308
312
312
308
307
312
311
307
309
314
314
310
310
315
313
309
311
314
311
307
310
315
312
309
312
314
310
308
311
315
312
310
313
316
312
310
314
316
312
312
316
318
314
314
318
318
314
314
320
314
315
318
317
313
316
320
317
313
317
322
318
314
318
322
320
314
318
323
321
317
322
324
320
318
323
323
319
318
325
325
319
317
322
323
320
319
324
326
319
318
322
323
320
320
324
323
319
322
330
331
325
326
333
333
330
334
342
342
342
343
340
332
324
325
320
317
322
323
319
318
322
323
316
313
326
343
368
405
424
403
364
334
300
284
300
315
325
326
322
321
325
324
320
324
329
325
321
325
331
329
325
328
333
329
327
332
335
333
333
338
340
336
336
342
344
342
343
352
354
349
349
360
364
362
364
371
369
374
379
376
371
369
367
356
345
340
336
324
313
313
315
310
306
309
310
306
303
307
310
306
304
308
310
306
304
311
312
307
306
311
313
309
310
316
314
308
310
315
314
310
310
314
313
311
314
317
314
310
313
316
312
310
313
316
314
312
314
316
312
309
319
313
310
315
316
311
311
317
318
314
312
317
318
313
314
317
316
313
314
320
319
314
315
320
317
315
317
321
319
315
317
321
317
313
317
322
318
315
318
320
317
316
321
323
319
318
323
324
319
317
323
322
318
320
325
324
320
320
324
325
320
320
325
324
321
326
324
319
321
326
323
320
325
333
332
333
338
342
337
334
342
347
341
335
335
332
322
316
319
321
317
317
321
321
314
312
317
324
340
376
422
424
390
356
329
285
274
301
319
320
318
321
324
320
318
321
325
322
319
323
326
323
319
324
329
325
324
329
327
326
331
335
331
332
337
340
337
339
346
347
346
348
356
360
359
360
368
368
367
370
376
375
371
372
372
362
350
344
339
329
318
316
316
308
305
308
309
303
300
305
307
304
303
308
308
302
302
308
310
306
304
309
310
305
307
311
309
305
308
312
311
308
314
312
308
312
316
312
308
312
317
312
310
314
317
313
311
317
318
313
312
318
317
312
313
319
320
314
312
318
317
313
314
319
318
313
315
320
319
314
318
320
318
315
319
322
320
316
318
322
319
317
321
326
322
319
321
321
321
319
323
324
319
319
325
326
319
325
326
322
322
327
330
326
327
333
335
330
330
336
335
334
340
344
338
329
325
328
324
319
323
327
324
320
323
327
324
319
322
328
339
364
400
413
389
357
335
303
276
293
322
329
324
326
332
332
328
329
335
333
330
330
334
334
331
333
339
337
332
335
339
336
341
343
341
341
346
350
347
346
353
358
354
355
362
368
365
368
374
377
374
374
382
382
376
374
376
369
355
347
341
334
323
321
321
317
310
309
312
308
305
309
312
309
305
307
312
307
304
309
311
308
306
310
311
309
307
313
313
309
307
313
313
309
316
317
312
310
315
314
310
312
318
315
311
315
318
315
311
312
317
314
309
313
319
319
316
318
322
318
317
322
324
323
324
333
338
331
324
322
319
314
311
315
317
315
314
317
317
312
312
317
315
309
316
342
371
390
388
369
339
309
278
273
292
309
317
320
317
321
324
321
319
323
326
322
319
324
327
322
322
327
328
326
326
331
331
327
328
335
336
330
333
340
341
340
342
349
349
348
353
360
361
360
364
367
365
363
367
369
358
346
340
336
324
314
311
308
301
299
302
302
295
294
299
301
296
295
299
299
294
295
301
295
296
300
300
297
299
304
301
297
299
304
303
299
301
306
303
300
303
306
303
300
305
307
303
300
304
306
301
299
304
306
302
301
306
308
304
305
310
311
308
310
315
313
310
315
323
323
316
314
313
306
301
302
307
307
305
307
309
305
302
306
310
304
314
341
365
388
383
359
328
295
264
270
294
307
313
313
310
311
315
314
311
312
318
319
315
315
320
320
316
319
326
323
319
322
327
325
323
328
331
329
328
333
337
334
335
341
347
344
345
353
357
355
356
362
366
362
360
363
360
350
342
339
328
317
314
315
303
302
307
305
300
301
306
303
299
303
308
302
299
302
307
304
303
308
311
306
303
308
312
308
305
309
312
309
308
312
313
309
308
314
314
310
311
316
314
310
312
317
315
311
312
317
314
310
312
316
313
310
314
318
316
314
317
320
317
314
317
318
315
313
322
317
316
321
321
318
317
321
322
319
319
324
325
320
319
324
325
321
319
323
323
320
322
326
325
321
320
324
322
320
324
327
323
321
324
327
324
321
324
327
323
321
327
329
324
321
326
327
324
323
328
329
323
323
329
328
323
325
330
329
323
325
332
329
325
331
330
328
333
338
334
331
337
344
340
337
344
347
343
337
338
336
325
321
326
329
322
320
325
326
320
317
324
332
345
377
415
416
386
359
336
298
291
310
324
326
324
324
327
325
322
323
327
326
323
326
330
327
325
329
331
327
326
332
334
331
331
335
333
332
338
343
340
340
346
348
345
348
356
359
358
360
367
369
368
369
374
374
371
371
369
361
349
343
340
330
320
318
318
312
305
307
312
308
306
309
309
305
305
310
311
306
303
308
309
306
307
312
312
307
306
312
311
306
308
314
313
307
309
314
312
309
317
314
310
313
317
315
310
313
317
313
309
312
317
313
312
317
316
312
311
315
317
314
312
316
317
312
313
316
316
311
312
319
319
313
313
319
319
315
316
320
319
314
315
320
319
317
319
322
318
315
319
323
320
316
321
324
318
315
319
322
317
316
321
323
317
322
322
318
318
322
323
318
318
322
323
319
321
324
320
317
320
328
326
324
330
338
339
334
334
341
339
337
339
342
331
321
322
323
318
317
323
325
319
316
320
318
318
333
364
400
417
401
376
349
308
282
301
319
318
322
328
326
320
323
329
328
325
326
326
324
328
333
330
328
333
335
329
329
334
338
335
334
340
342
340
341
349
350
346
350
358
361
360
363
371
372
369
373
380
381
379
379
382
375
365
360
355
343
332
329
328
321
315
317
321
314
310
316
317
312
310
316
318
311
309
314
317
314
313
315
315
312
319
317
311
312
318
319
313
315
321
320
314
319
326
321
311
316
324
322
317
320
325
322
318
320
326
322
318
322
325
318
318
324
325
320
318
322
324
318
318
323
323
318
320
326
324
319
320
324
323
319
321
326
324
319
322
327
323
319
323
329
325
321
322
327
320
325
328
325
321
325
328
327
323
327
330
328
330
338
341
338
335
340
343
341
340
341
336
326
322
326
325
319
322
327
324
319
319
321
318
322
346
379
401
398
379
354
323
286
278
303
319
321
324
330
325
322
328
331
327
325
331
331
326
325
332
334
330
329
337
330
331
337
338
334
337
343
342
338
342
350
349
348
353
360
358
357
363
371
369
367
371
378
377
374
375
373
363
352
347
343
329
321
320
316
310
308
309
307
303
303
306
305
302
303
309
306
301
302
308
307
303
305
310
308
302
306
307
303
302
306
312
309
309
311
308
306
311
313
309
306
311
315
309
305
310
311
305
304
311
312
306
306
312
312
307
306
312
311
305
305
309
309
304
308
313
309
304
308
315
312
306
309
314
309
307
312
315
310
308
311
315
310
309
313
315
312
312
318
320
318
319
329
331
324
325
332
327
325
326
316
308
311
315
312
308
311
314
310
307
309
316
325
345
374
394
378
350
325
298
268
273
303
316
312
311
319
322
318
315
319
321
318
319
322
321
316
318
324
324
320
322
328
327
323
325
331
329
328
332
337
335
332
337
342
342
341
349
355
355
352
366
364
365
371
372
368
362
362
356
343
332
329
323
311
305
306
304
297
298
304
303
297
296
301
302
299
300
304
302
297
300
305
301
299
303
306
303
299
303
309
304
302
307
309
304
302
309
311
306
306
312
312
304
305
311
311
305
306
313
310
304
306
313
310
307
313
309
306
308
313
310
307
310
313
312
308
311
313
309
307
313
317
312
309
314
315
311
310
315
317
312
312
319
318
313
313
318
317
313
314
319
318
313
313
318
317
312
314
321
318
314
317
321
319
315
317
321
320
317
321
327
327
326
334
339
333
332
337
334
329
332
327
317
317
320
319
314
315
320
319
313
313
325
337
355
386
407
391
362
340
311
283
293
315
324
322
321
325
327
323
321
325
329
325
323
328
331
326
324
330
333
327
326
333
336
331
330
338
341
335
335
342
344
341
342
349
351
349
351
361
363
361
374
372
371
374
381
376
370
370
367
357
346
340
336
328
321
320
320
315
312
316
318
313
311
316
317
312
312
317
315
310
311
318
318
314
314
318
317
311
312
319
318
313
316
321
318
314
318
324
320
315
317
321
319
318
320
322
319
318
323
323
318
318
323
325
318
322
324
319
321
325
324
320
319
324
324
320
322
327
325
321
323
327
325
321
323
329
326
323
327
330
324
321
324
329
325
322
327
330
326
323
325
326
323
321
327
330
326
323
328
328
325
326
331
329
324
326
332
328
322
324
330
329
325
325
329
325
323
327
328
325
327
332
328
325
330
332
325
323
330
333
330
331
339
343
342
338
340
344
342
341
347
345
335
329
331
329
321
321
328
326
321
323
326
320
322
336
364
396
413
402
380
350
312
289
307
317
319
326
329
325
322
326
329
324
323
328
330
327
325
330
330
325
333
331
328
330
335
334
330
332
337
337
334
337
346
345
341
346
354
352
351
357
367
366
363
369
375
372
369
375
379
370
361
357
351
340
330
328
324
314
308
312
313
306
305
310
311
305
304
310
310
305
306
311
309
305
305
311
309
304
308
312
310
307
309
313
306
308
313
312
308
310
311
308
308
313
315
310
308
312
315
311
308
317
319
311
310
315
317
313
313
316
315
310
313
318
317
313
315
319
317
312
316
320
316
313
317
320
317
314
317
319
315
313
318
321
317
315
320
322
317
316
323
323
318
317
322
323
318
319
324
319
319
324
324
320
323
327
324
320
322
327
325
321
320
322
322
319
322
326
323
320
324
327
324
321
326
329
324
320
326
331
330
335
342
342
338
335
340
343
341
342
345
341
330
324
327
326
321
322
326
326
324
323
322
321
326
348
381
411
413
394
368
337
289
312
321
321
328
331
326
323
328
330
326
324
330
331
325
326
333
334
329
331
336
334
329
333
338
339
336
337
343
342
340
344
349
347
346
350
357
358
358
363
370
370
367
373
380
378
375
379
380
371
362
359
353
339
328
328
325
317
313
318
316
309
309
315
310
307
312
313
308
310
315
314
309
311
315
312
310
314
319
314
308
313
317
313
311
317
319
314
314
319
318
313
312
318
320
317
314
317
319
316
315
319
318
314
315
320
318
313
315
320
319
314
317
321
318
313
314
319
316
313
319
322
317
314
316
320
317
314
321
315
314
319
321
316
315
321
322
316
317
323
323
317
317
322
321
317
319
323
322
320
319
322
321
317
319
324
320
316
322
326
321
316
320
325
326
326
333
337
332
329
335
337
334
332
336
332
321
316
320
319
314
313
319
317
313
312
314
318
327
354
387
401
357
335
298
270
288
316
317
312
318
323
322
318
320
323
320
316
320
323
322
319
325
327
321
320
325
327
323
324
331
332
329
328
334
334
332
335
341
342
340
344
351
353
351
354
361
363
361
367
372
369
364
366
363
352
341
337
333
322
310
308
306
301
297
300
296
294
299
299
293
294
299
297
291
293
299
297
293
295
300
300
296
298
301
300
295
297
304
304
298
299
304
301
298
302
305
303
300
304
306
302
299
304
307
302
299
304
307
301
299
303
304
301
301
305
306
301
301
307
308
303
303
307
304
300
304
309
307
305
309
305
302
306
311
307
303
308
311
307
303
309
312
308
305
311
312
307
306
313
312
307
307
313
313
308
307
312
312
309
309
314
314
310
311
316
313
308
311
317
315
311
314
317
313
311
316
321
322
323
330
339
336
331
337
342
339
336
339
336
325
320
323
325
319
324
324
320
318
324
335
351
380
409
403
374
351
326
289
288
313
325
324
322
326
331
327
323
327
331
330
328
329
330
328
328
332
335
330
328
333
334
331
332
337
338
334
336
344
343
338
340
347
348
344
348
356
357
356
361
367
368
366
370
376
374
368
370
357
344
339
335
324
316
316
315
308
304
307
308
304
302
307
308
303
302
307
309
304
303
308
307
303
304
310
310
306
307
311
310
307
310
315
312
310
311
316
314
312
314
317
313
312
317
319
316
312
315
318
315
313
317
319
315
313
317
319
315
315
321
318
311
321
320
313
313
319
320
316
318
323
319
316
320
322
318
314
318
324
320
316
320
325
320
317
321
324
321
319
323
325
322
321
326
328
321
320
326
327
323
322
326
328
324
323
328
327
322
323
328
327
324
327
332
328
322
323
329
328
325
326
330
327
324
328
331
325
331
336
335
334
343
347
340
337
344
346
342
339
340
333
323
321
325
325
320
322
325
323
316
316
328
340
361
398
421
405
372
347
316
288
298
318
327
326
324
326
329
324
322
328
330
325
321
328
332
327
324
330
334
329
328
333
334
330
331
336
338
336
337
343
339
341
348
349
347
352
360
360
359
364
370
371
370
375
380
376
373
373
370
358
348
343
337
326
318
318
316
309
306
310
311
305
304
309
310
305
305
311
311
306
305
312
311
306
306
312
312
308
309
313
310
306
310
315
312
310
313
316
312
311
314
317
312
314
317
313
311
315
318
313
312
317
319
314
313
318
318
314
315
320
317
312
314
319
319
316
316
322
320
316
320
322
317
316
321
327
326
322
325
330
329
325
329
332
330
328
334
338
334
333
337
339
336
336
341
342
337
336
342
342
338
338
342
341
338
340
344
337
337
343
343
340
340
344
343
337
339
344
341
337
340
345
341
336
339
342
339
336
341
342
337
336
341
343
336
335
345
350
348
348
352
351
347
349
354
354
346
341
337
331
326
328
334
331
325
327
330
326
320
329
349
369
398
415
402
368
339
308
290
305
321
330
326
324
329
333
327
325
332
333
327
324
329
329
326
329
336
334
327
328
334
332
329
333
339
338
334
337
343
342
341
346
353
350
346
353
360
358
359
368
371
368
367
376
377
372
367
365
358
348
338
334
325
314
311
313
310
305
304
307
305
301
303
305
303
303
310
306
301
303
309
306
302
306
309
305
304
309
311
304
303
310
311
307
305
312
314
308
306
311
313
307
307
313
313
310
309
315
311
306
309
315
314
308
309
313
310
306
309
315
311
307
309
314
310
307
311
314
310
307
312
316
312
311
314
314
310
310
315
311
309
314
315
311
310
315
315
311
312
317
315
310
311
316
315
309
310
315
314
310
313
318
312
309
313
318
315
310
314
316
312
312
316
318
314
315
324
328
325
325
328
330
326
325
329
328
322
314
314
310
305
307
311
310
305
306
311
307
303
317
349
378
393
355
325
292
263
273
297
304
309
313
309
306
311
313
310
310
315
317
311
309
313
316
312
311
317
317
313
317
322
319
315
318
325
326
321
324
330
331
328
334
340
338
339
346
351
351
351
357
362
360
358
364
366
358
350
346
340
326
315
313
311
302
298
300
296
292
297
296
291
291
296
296
291
293
298
295
292
295
299
297
294
296
298
297
295
300
304
299
296
301
305
301
297
301
305
300
299
305
306
302
301
306
305
301
299
306
308
302
301
307
307
303
305
311
309
303
303
307
308
304
306
310
308
305
307
310
308
305
309
308
304
308
313
309
307
311
313
310
308
313
314
310
310
314
313
309
309
311
312
309
310
316
315
310
309
314
314
311
313
319
316
312
315
319
316
313
316
320
315
315
318
321
318
316
321
323
319
318
324
328
326
327
335
341
334
332
338
341
337
333
336
330
318
323
321
315
316
321
318
314
314
320
327
342
374
411
408
378
354
330
286
283
309
322
320
320
324
326
322
321
325
327
322
321
328
329
322
324
331
329
324
328
333
331
327
330
337
337
334
336
340
339
337
341
348
348
348
354
359
360
358
363
371
372
370
373
379
374
377
375
362
353
350
343
329
322
323
319
312
310
316
314
307
307
311
311
307
308
313
313
308
309
314
313
308
309
316
313
308
310
316
314
311
314
318
314
310
315
320
315
312
317
318
315
313
318
319
315
316
321
321
316
314
319
319
315
315
320
319
315
317
319
316
317
322
319
316
320
325
321
317
320
325
322
319
320
323
320
319
325
328
322
319
324
326
320
320
327
328
323
322
325
325
322
321
327
326
322
323
329
328
322
324
330
326
323
324
328
327
323
325
328
327
324
327
332
326
322
326
330
325
323
329
332
326
329
331
328
327
335
340
339
342
346
342
339
342
349
345
338
334
333
329
323
322
326
325
322
323
326
319
314
324
345
370
401
420
404
369
339
305
289
303
317
326
331
325
321
326
328
324
322
328
330
324
323
330
330
324
325
332
333
328
330
334
333
330
332
338
335
338
345
343
340
345
352
351
349
357
363
363
362
369
374
371
371
377
380
374
369
369
362
347
338
336
329
319
315
317
314
308
306
310
308
303
306
312
308
304
306
310
309
305
308
312
309
305
307
311
311
307
309
312
308
307
312
313
310
307
313
316
313
311
316
312
314
318
317
312
313
320
319
313
314
317
317
314
316
321
319
314
315
322
320
315
316
322
321
317
319
321
319
316
321
325
320
317
321
325
321
323
329
323
315
316
322
322
318
319
325
323
319
321
325
323
319
321
326
326
321
322
325
325
321
323
328
323
325
329
326
322
324
330
328
323
327
332
329
329
338
343
341
337
339
342
346
351
343
335
326
322
324
324
320
320
323
324
320
320
324
324
329
351
383
407
400
380
354
323
283
281
310
322
320
325
328
325
324
329
331
327
326
328
329
325
326
332
333
328
329
335
330
330
337
338
333
335
341
341
338
340
348
348
345
350
356
357
356
362
370
369
369
372
375
373
372
376
377
369
358
352
346
334
325
323
319
310
306
310
309
304
303
307
307
302
299
305
305
301
302
307
305
301
303
308
305
301
304
310
306
303
306
311
307
305
311
308
304
308
311
307
305
309
313
308
305
309
312
309
308
313
311
306
306
312
312
308
308
312
312
308
307
313
313
308
310
314
311
308
311
315
313
309
312
318
315
308
310
315
312
310
313
317
312
308
312
314
311
309
313
315
312
310
317
318
313
310
318
320
317
323
323
319
320
326
326
326
330
332
326
319
317
318
312
310
313
315
312
309
313
317
315
308
311
321
335
359
392
402
375
345
325
290
268
289
313
317
315
316
320
320
317
318
322
321
318
320
325
323
319
322
327
327
322
325
330
327
325
328
333
331
329
334
335
336
341
346
344
345
352
358
353
356
366
369
368
367
372
373
369
367
370
362
347
338
335
327
316
312
313
310
304
304
306
303
299
302
306
304
300
303
306
302
301
305
309
304
302
307
308
304
303
308
310
307
305
311
311
307
307
313
314
310
309
314
315
310
317
314
309
311
317
315
312
313
317
314
310
313
316
313
310
315
318
313
312
315
317
313
311
316
318
314
311
318
321
315
314
318
318
314
315
319
319
315
315
319
319
315
316
322
322
317
316
320
319
316
318
321
319
316
320
323
320
316
320
325
321
318
323
326
319
324
324
320
319
324
324
320
320
325
326
322
324
331
333
331
333
340
340
336
340
347
344
336
334
335
329
320
319
321
319
317
319
322
318
314
316
317
320
336
371
408
414
392
367
341
296
277
301
316
316
318
324
323
318
317
324
324
319
320
323
323
319
319
325
320
325
330
328
325
327
331
331
328
331
336
335
335
338
341
340
341
347
352
350
350
358
365
363
364
371
374
371
370
374
369
358
351
347
338
323
317
318
313
306
306
308
306
300
301
306
304
300
302
305
302
300
304
309
304
300
303
307
304
302
307
309
305
309
312
307
306
310
311
305
307
311
309
305
307
314
313
306
308
314
312
307
310
314
314
311
311
317
315
313
314
317
315
309
314
318
314
312
315
318
313
311
315
319
315
313
318
319
314
313
318
319
314
315
322
320
314
315
321
320
315
317
323
321
317
321
324
318
319
324
322
319
323
326
323
319
324
326
322
322
326
328
325
322
327
330
323
321
327
328
323
324
329
330
326
327
334
337
337
340
347
344
339
343
351
350
343
342
343
334
324
327
330
328
324
327
331
328
324
324
325
326
338
372
410
423
404
375
348
309
285
324
325
327
334
335
329
327
333
333
330
332
336
334
331
332
338
338
334
336
340
337
335
338
344
342
338
342
347
345
344
350
354
352
352
357
362
361
363
371
376
374
373
380
385
381
379
382
380
370
363
358
348
336
331
331
324
316
314
319
316
312
313
314
311
312
315
314
311
312
316
314
311
314
317
314
311
315
317
313
313
318
317
312
312
318
318
315
315
320
320
316
315
319
318
315
317
321
319
314
316
322
319
315
316
320
318
314
317
319
316
313
318
319
315
313
319
322
317
314
319
320
316
315
319
321
317
318
321
315
316
321
322
318
319
323
320
317
320
324
321
316
318
323
320
317
319
322
320
317
321
325
321
318
321
323
320
320
326
329
330
331
336
338
331
334
343
342
334
329
330
328
317
316
318
317
313
314
319
318
313
312
314
315
326
351
387
405
387
363
339
302
267
308
314
311
318
322
315
313
317
320
317
316
321
322
318
319
324
323
318
318
325
326
322
323
330
329
327
328
335
334
330
333
340
340
338
344
350
351
352
357
366
364
362
369
374
373
368
370
370
358
348
342
334
322
312
314
312
304
300
304
302
296
295
301
301
296
302
302
296
296
302
299
295
298
303
303
298
302
306
303
300
302
307
305
300
304
309
306
303
306
309
304
303
308
310
306
305
310
310
305
304
309
310
305
304
309
310
305
306
311
309
306
305
309
308
304
307
314
311
304
308
312
309
306
311
315
310
306
310
311
309
314
314
309
311
315
315
312
312
317
319
315
312
316
317
313
314
320
320
312
315
322
319
315
317
322
320
314
318
324
322
315
318
324
323
319
321
325
321
318
321
326
323
319
322
327
326
330
337
341
337
335
341
345
341
340
339
336
327
322
325
323
318
322
322
317
319
322
316
315
328
356
385
412
411
387
356
319
282
288
309
316
324
329
323
319
321
325
322
322
327
328
323
322
329
333
327
326
331
331
328
332
337
336
334
337
342
340
338
341
347
346
342
348
355
354
353
358
364
364
365
370
375
374
374
380
382
368
366
359
347
337
334
329
319
314
315
313
306
306
311
311
305
305
310
308
303
305
312
308
304
307
311
310
307
309
315
311
308
312
316
311
308
313
319
314
308
313
318
313
311
315
317
311
311
318
319
313
313
317
318
313
313
319
319
314
314
319
318
314
316
319
316
318
322
319
315
319
323
320
316
319
324
318
315
321
324
319
316
321
324
319
318
324
326
320
318
324
327
321
320
325
328
322
323
327
325
321
322
327
326
322
323
327
324
320
323
327
326
323
327
331
327
323
326
329
323
321
326
330
326
322
327
331
330
340
346
339
336
342
346
341
339
343
337
325
322
327
325
320
321
327
325
319
319
323
326
334
361
401
421
405
377
351
312
282
298
323
326
323
329
330
325
323
328
332
327
325
330
331
326
326
333
333
328
330
337
337
331
332
339
340
334
336
344
344
340
342
349
347
352
358
357
357
365
373
370
368
374
381
378
376
379
377
367
360
356
349
335
326
326
323
315
311
314
313
308
308
313
311
307
306
311
311
307
308
314
311
307
310
316
310
306
312
313
310
307
312
317
313
309
312
314
311
310
315
317
312
311
317
319
314
312
317
312
312
317
317
311
313
318
315
309
312
320
319
311
313
318
315
310
313
318
316
311
316
318
313
310
315
319
314
312
315
320
315
312
318
319
315
314
318
319
314
314
319
320
315
313
318
319
314
315
320
320
316
316
321
321
316
319
322
320
315
319
324
323
330
337
335
331
332
338
336
333
336
337
329
322
322
320
315
313
320
321
314
312
318
317
317
330
361
392
403
387
363
333
295
271
289
312
315
315
322
322
319
321
325
323
319
323
327
323
320
324
329
325
322
327
331
327
327
334
334
329
327
335
338
334
334
340
339
341
350
353
351
355
364
366
363
365
374
374
370
374
377
368
357
353
349
336
324
322
320
310
304
307
309
302
297
302
305
300
297
302
304
300
298
303
304
299
298
303
304
299
299
306
307
301
301
306
307
303
306
310
307
303
305
309
308
304
307
311
308
306
313
307
304
309
313
309
305
307
311
306
303
309
310
306
305
309
312
307
306
312
311
308
307
312
311
306
308
313
312
308
309
314
314
308
310
315
313
308
311
315
312
309
314
317
313
309
313
317
313
311
315
317
312
310
316
318
313
311
317
316
312
312
319
318
313
319
317
312
314
321
321
318
322
332
331
327
330
333
335
331
333
333
327
319
318
319
314
309
313
316
311
308
313
314
309
313
333
364
392
402
387
359
327
288
275
295
307
313
320
317
312
314
320
319
314
317
322
320
315
315
321
318
315
320
323
320
317
323
325
323
329
332
328
328
333
337
335
335
343
346
344
346
355
359
358
361
367
368
364
367
373
371
363
359
356
348
335
327
324
317
308
307
310
304
300
303
305
301
298
304
306
301
300
305
306
300
300
306
308
304
302
308
309
302
301
308
309
304
304
311
312
307
312
312
308
308
315
313
308
310
314
312
309
313
315
312
307
311
313
310
309
312
314
310
308
315
316
312
311
315
316
310
308
314
315
310
310
316
316
310
312
318
317
313
313
318
315
311
313
318
317
313
314
318
317
314
316
319
316
313
318
323
320
315
319
322
316
320
325
320
318
322
323
319
317
322
324
319
318
324
322
318
321
326
327
326
331
340
339
333
335
339
339
334
335
337
327
318
320
323
318
314
320
322
316
312
316
321
326
343
379
416
416
387
358
328
286
282
309
320
318
320
324
323
316
318
326
325
320
322
326
322
325
331
328
324
329
335
330
325
330
336
332
330
335
340
337
336
341
346
343
344
351
355
354
358
366
369
365
366
374
377
372
372
376
370
359
353
348
337
327
322
322
315
307
307
311
306
300
303
307
304
301
306
308
304
302
307
309
305
303
307
309
307
309
311
306
303
310
311
305
304
311
311
307
309
314
314
309
310
316
314
309
311
316
312
307
313
316
312
307
313
316
313
309
314
318
314
312
315
318
314
311
316
320
316
313
317
320
315
314
320
321
318
317
321
320
317
316
320
320
316
317
322
321
318
321
325
318
320
325
323
319
322
326
324
321
324
328
323
320
326
330
325
323
326
328
325
324
331
330
325
325
333
337
336
339
344
345
339
343
352
350
342
343
345
337
328
326
330
327
326
326
329
327
324
326
329
327
338
368
402
418
401
375
349
311
281
298
324
326
324
333
329
329
335
333
329
330
336
335
331
334
338
338
333
335
340
340
335
339
344
341
337
343
350
348
344
348
354
353
353
359
364
359
359
368
372
372
373
379
382
378
377
382
383
371
362
359
351
338
332
333
325
314
312
317
316
310
310
315
313
309
313
315
312
312
318
314
309
311
317
314
311
317
321
315
311
315
319
315
314
321
321
316
317
320
320
315
315
320
320
315
316
322
319
315
316
322
320
315
317
322
321
317
316
321
320
315
318
322
319
315
318
322
318
315
320
323
319
316
319
323
318
316
321
323
317
317
321
318
318
322
323
319
318
323
323
318
319
325
325
324
328
333
332
330
333
337
336
334
338
339
331
324
324
323
316
311
316
318
313
311
318
318
310
309
318
334
358
384
400
382
347
321
294
269
281
306
316
315
314
317
322
318
315
318
324
320
315
319
324
322
319
326
321
319
324
329
327
323
327
331
328
329
335
337
334
335
342
347
343
346
353
354
353
358
367
369
366
368
373
372
365
364
363
350
336
330
327
318
308
308
309
302
298
303
305
300
298
303
303
299
296
301
305
300
299
305
305
300
299
306
307
301
301
309
309
303
309
309
304
305
311
308
303
307
312
310
306
309
314
309
306
311
315
309
306
310
314
311
306
311
314
309
306
313
313
308
306
313
315
310
308
314
316
311
312
316
314
310
312
318
316
311
311
317
317
312
312
318
314
312
315
321
317
313
316
320
317
314
319
316
313
320
322
316
313
318
321
317
316
324
323
318
317
323
325
319
319
323
323
322
325
334
336
331
334
338
336
337
342
343
338
332
330
330
322
318
320
322
318
316
319
321
315
310
318
330
344
368
407
415
388
357
335
295
280
301
320
324
319
318
324
323
320
328
324
320
322
326
325
322
325
329
326
323
327
333
331
328
331
336
332
331
337
340
338
336
344
349
347
345
353
358
355
359
367
370
368
370
376
377
372
371
374
365
353
347
343
333
320
317
317
312
306
307
310
307
303
305
310
307
304
310
312
306
304
308
311
306
312
316
309
307
312
314
310
309
316
317
312
312
316
314
309
313
318
316
312
313
318
317
315
316
320
316
313
316
320
317
314
316
321
320
314
315
319
315
315
319
321
316
315
319
320
316
315
319
321
316
316
323
323
319
317
320
319
316
319
325
322
318
319
321
317
320
324
320
317
321
325
320
320
322
325
321
319
324
327
323
318
322
326
322
323
326
327
322
322
326
327
323
323
331
335
334
336
343
341
334
337
345
345
340
338
341
329
320
322
327
326
322
322
323
320
316
318
325
334
356
392
424
413
381
355
324
282
317
327
323
320
325
325
322
322
327
329
325
324
328
327
323
325
332
332
327
330
336
334
330
332
338
337
334
340
344
341
337
343
349
348
347
355
361
359
359
367
372
371
371
378
379
375
376
379
377
363
355
352
342
330
324
325
321
314
311
314
313
309
309
313
308
311
314
309
305
311
318
315
308
312
316
311
309
313
317
312
312
318
318
311
310
317
319
316
314
318
317
315
315
320
318
314
315
320
319
314
314
319
317
314
316
322
319
314
317
322
319
314
318
322
320
316
320
324
320
317
320
322
318
315
322
324
318
317
324
320
320
325
324
319
318
326
324
317
318
323
323
318
321
326
324
321
323
328
325
320
325
330
324
318
323
326
323
320
324
327
323
323
331
337
335
337
344
343
337
335
341
345
339
335
332
327
321
320
325
325
321
321
325
323
316
318
328
347
371
401
410
386
332
298
276
296
321
326
321
320
326
329
324
319
327
329
326
322
328
331
327
326
329
331
328
327
333
334
331
333
340
337
332
336
344
344
338
342
350
351
348
352
360
360
360
365
372
369
368
376
382
378
370
369
365
353
341
336
331
321
316
317
313
304
303
308
303
301
307
305
298
300
305
304
299
302
305
304
299
303
307
305
301
304
310
306
302
305
309
306
303
307
310
306
302
308
311
307
305
309
310
306
303
309
311
305
304
310
310
305
304
310
308
304
304
311
309
305
307
311
310
305
306
312
310
304
307
313
309
305
314
310
306
309
313
310
307
311
311
307
306
312
313
310
307
311
312
307
307
313
313
310
308
313
313
308
309
315
314
309
310
315
314
313
318
327
329
327
329
333
328
326
330
332
326
317
313
314
308
306
311
313
310
309
315
314
308
315
336
364
390
399
381
350
284
274
295
307
313
320
319
314
318
324
320
316
319
324
320
316
320
326
323
319
323
328
325
323
328
332
329
327
332
336
333
332
339
339
336
338
346
348
346
349
359
360
358
362
372
371
368
371
376
373
363
360
358
346
333
328
325
315
308
309
311
305
301
303
302
300
305
307
302
303
308
308
304
303
307
308
304
303
308
308
303
305
311
308
303
306
311
311
306
307
313
311
307
312
317
312
307
312
317
314
309
314
317
313
310
315
317
312
310
315
318
312
310
315
317
314
311
316
317
314
314
318
317
312
314
320
320
315
320
320
315
316
321
319
316
320
325
321
315
320
324
321
319
322
326
322
320
323
325
321
320
325
325
321
321
327
328
322
322
328
328
323
323
327
326
323
324
331
332
330
334
341
341
339
341
345
344
341
345
347
340
329
326
329
325
321
326
329
325
322
325
326
336
364
395
413
402
379
353
318
287
300
322
325
327
334
333
328
330
335
333
328
331
337
337
330
332
337
334
332
336
342
339
336
340
345
341
337
344
350
346
346
351
353
349
349
358
363
359
360
369
373
371
373
382
389
381
373
378
380
369
364
361
352
341
335
327
319
321
324
318
312
316
321
317
312
317
321
320
323
319
315
311
311
317
321
316
317
322
321
318
319
324
323
318
319
324
325
319
320
327
325
320
323
325
324
320
323
331
335
327
318
321
320
318
323
328
325
321
324
326
324
320
324
327
322
320
326
329
323
327
328
323
322
332
336
325
316
322
324
320
322
328
327
323
324
330
328
322
326
331
330
324
326
330
328
330
345
349
333
328
337
341
337
334
340
342
338
329
327
326
321
320
325
326
322
322
327
330
327
320
339
370
391
392
377
350
322
289
279
295
313
323
325
323
324
330
335
325
321
325
322
322
328
331
326
323
330
334
331
329
335
337
333
333
341
342
340
345
341
337
335
341
350
354
350
352
361
363
360
366
375
372
369
375
378
370
363
367
354
332
320
321
322
312
304
306
309
304
301
303
303
300
301
310
310
294
292
299
296
298
305
302
298
301
306
305
302
304
311
313
300
296
305
305
302
304
305
303
299
306
314
309
304
308
319
306
296
301
303
301
302
309
313
307
304
308
313
311
316
321
312
304
307
315
321
321
322
324
321
310
307
312
312
300
296
304
304
302
307
309
306
306
305
306
322
355
381
375
345
323
304
271
260
284
307
308
303
311
318
312
320
321
313
310
313
319
317
312
318
327
321
318
327
327
317
317
323
329
326
328
328
332
336
332
334
344
344
332
337
348
345
347
356
361
358
361
369
377
362
346
352
351
340
334
336
312
309
312
313
313
302
294
300
302
304
307
307
296
305
313
303
300
309
309
305
298
299
309
314
311
318
307
300
302
312
317
313
308
316
319
320
313
309
313
309
310
320
319
313
316
317
311
307
318
327
316
317
325
338
330
316
317
328
320
307
311
327
320
301
317
314
311
317
319
312
313
318
320
327
348
367
366
349
332
323
298
270
286
314
322
320
324
335
329
320
326
330
323
324
346
345
332
326
330
327
333
341
345
347
336
323
337
343
345
344
353
353
337
328
344
353
352
351
353
362
356
348
365
362
354
362
375
373
362
358
342
330
327
324
324
324
333
322
304
303
311
317
319
315
313
316
313
310
328
326
310
306
307
316
321
318
310
312
313
314
321
321
316
314
321
325
325
312
311
321
318
315
318
321
323
327
327
326
327
328
327
326
322
325
336
329
317
322
334
333
311
308
316
322
323
320
314
314
325
334
317
300
315
338
352
363
366
350
333
314
293
280
296
322
326
322
319
325
330
333
330
334
327
317
321
324
329
329
320
330
345
333
324
326
329
327
329
337
338
335
335
336
341
343
337
341
338
341
348
354
359
360
358
360
360
358
363
356
343
346
347
325
308
312
322
319
313
310
314
312
309
311
313
310
307
313
317
311
310
311
309
308
314
316
304
299
303
311
311
305
307
315
315
307
309
312
312
309
310
313
308
301
306
310
309
310
307
305
305
308
312
313
312
313
313
314
310
310
317
322
304
304
306
303
301
305
307
303
302
307
306
301
303
315
303
289
298
322
342
359
362
356
332
301
270
269
287
300
307
314
310
307
310
315
310
306
309
310
304
303
309
311
303
302
307
308
302
301
306
307
302
303
310
309
304
304
310
310
308
311
318
320
318
320
326
322
326
335
333
327
326
329
322
313
310
305
296
291
290
290
286
285
288
288
285
285
290
291
287
286
292
292
290
290
296
296
291
292
298
298
293
297
302
299
296
300
304
301
298
302
308
305
301
306
312
309
305
308
311
308
307
311
313
309
308
313
315
313
318
316
311
311
318
319
314
313
319
320
316
317
322
320
316
318
324
323
318
319
324
322
319
323
327
326
322
325
330
326
322
328
332
326
323
329
332
327
325
330
331
329
328
332
332
328
329
334
335
328
328
334
335
331
331
336
334
329
332
337
336
330
332
337
332
334
339
334
331
335
339
334
332
335
337
333
332
338
340
335
331
336
337
335
333
338
338
334
334
339
337
333
338
345
341
337
342
347
344
341
346
355
353
345
344
345
339
333
332
335
332
330
332
336
333
329
332
332
328
332
348
372
396
408
404
387
360
325
320
325
328
335
334
329
330
335
335
330
330
333
332
329
332
335
333
330
333
339
336
333
339
341
337
334
338
345
349
345
340
342
340
340
349
353
353
351
357
362
360
361
369
371
368
369
375
374
368
365
366
358
345
340
340
332
322
321
327
322
316
316
319
316
316
320
318
314
317
318
316
315
320
320
314
313
319
320
316
316
320
320
316
316
322
320
314
315
320
318
314
316
321
319
315
317
320
318
314
317
324
322
316
317
322
320
317
321
324
320
317
321
325
324
326
323
321
317
319
326
325
320
317
323
324
319
319
326
320
320
325
324
319
322
329
326
320
322
328
325
320
324
329
325
320
323
328
325
323
325
326
323
321
326
328
324
322
325
327
323
322
328
329
323
322
327
328
324
324
331
328
321
323
330
329
321
325
329
325
320
325
331
330
328
329
333
332
332
334
337
336
336
347
342
333
330
330
323
319
323
328
321
318
325
326
321
318
321
321
322
336
368
400
407
392
374
352
313
293
309
321
323
326
330
326
322
323
328
326
323
327
331
328
324
328
331
328
326
331
335
330
325
330
334
332
333
339
338
335
335
341
342
339
342
352
351
351
361
363
359
361
369
369
367
370
371
366
359
357
353
341
329
325
323
315
307
308
310
304
302
308
311
304
301
307
308
303
303
308
310
305
305
309
309
304
306
311
309
305
307
313
311
307
308
313
312
308
312
316
308
305
311
316
312
310
312
316
313
310
314
311
307
314
316
313
310
315
317
312
311
316
316
311
310
318
318
311
312
320
318
312
312
317
315
312
314
317
314
311
314
319
315
310
316
320
316
311
315
320
316
313
317
319
314
312
316
319
317
315
319
320
315
316
321
321
316
317
324
324
317
318
324
320
315
325
324
322
323
327
328
326
327
332
332
331
338
340
333
326
325
324
319
315
319
322
318
316
322
322
317
316
320
321
326
347
385
412
398
369
349
317
278
288
314
320
318
322
327
323
317
321
327
324
319
321
326
323
321
326
328
324
321
326
332
328
326
332
336
328
335
339
336
336
342
344
342
341
351
353
351
354
361
362
361
365
371
370
366
368
370
364
353
349
346
334
323
319
319
311
306
309
309
303
301
305
307
302
300
305
307
302
302
307
308
304
303
307
307
305
305
310
309
302
306
311
308
305
306
310
308
302
305
308
304
307
312
308
305
309
312
308
306
309
311
308
307
311
312
307
305
311
314
309
307
313
314
309
308
313
313
309
310
317
316
310
311
315
315
312
315
320
317
313
316
320
318
314
316
320
316
312
316
320
317
315
317
319
316
313
317
320
316
316
320
322
315
322
324
317
317
326
327
322
321
328
330
325
327
335
337
335
335
336
328
317
316
321
319
315
318
322
319
314
316
321
315
311
324
344
369
402
409
383
350
320
288
283
301
313
322
326
320
317
325
325
321
319
324
324
320
322
327
325
323
325
331
327
322
327
333
329
332
337
334
333
338
342
341
338
347
349
346
347
355
361
357
358
366
371
367
367
374
374
368
366
363
356
345
336
333
325
314
310
312
308
304
306
309
306
301
302
306
303
300
305
310
304
300
306
309
305
303
307
310
307
305
310
311
306
306
312
312
307
306
314
310
308
313
314
309
309
316
314
309
310
314
313
308
311
316
313
309
312
316
312
310
312
315
313
310
314
316
313
311
315
318
314
312
318
319
313
313
318
318
315
315
319
317
313
315
321
319
313
316
321
318
313
318
323
318
314
319
323
319
315
319
324
322
322
327
323
320
325
330
328
326
331
331
330
335
342
338
327
320
323
323
315
316
320
319
315
317
320
318
312
313
321
330
347
381
413
399
364
339
311
274
279
310
324
321
319
324
327
324
322
326
327
324
323
329
331
325
324
330
332
327
327
334
336
330
330
337
335
334
341
342
339
342
347
348
344
350
359
360
358
364
370
367
365
372
378
374
370
373
372
359
350
346
340
327
319
319
316
310
307
309
309
304
304
308
307
303
304
310
309
301
303
309
308
304
306
312
310
307
309
312
310
307
311
315
312
309
313
316
312
309
319
314
307
311
317
311
309
315
318
313
311
318
319
313
311
318
319
313
312
319
318
312
312
318
320
316
315
319
319
315
317
322
320
317
321
325
321
319
322
327
323
319
323
326
324
322
327
327
323
326
335
327
319
322
329
332
329
334
340
340
337
342
346
339
328
329
328
324
325
330
327
324
326
328
325
323
325
333
346
376
409
413
383
353
334
304
282
295
326
335
328
328
336
337
331
331
337
340
332
332
339
341
342
347
342
333
330
333
342
341
335
341
346
344
342
346
352
351
348
355
360
357
356
361
367
365
366
373
383
371
374
379
378
378
378
372
360
350
348
341
330
322
322
319
314
312
317
323
310
301
306
309
305
308
313
312
305
308
316
313
307
310
315
313
314
318
312
304
307
311
314
309
310
315
315
309
307
315
318
311
309
314
313
310
314
326
323
305
301
312
319
315
320
320
317
319
325
325
324
328
332
325
322
314
308
304
304
311
312
306
306
312
315
308
307
311
314
320
349
381
382
348
330
318
289
261
269
302
313
312
316
320
319
317
324
331
318
310
316
321
317
316
322
326
322
320
322
326
324
321
328
341
335
320
326
330
331
336
339
337
339
346
348
347
351
356
360
358
366
360
354
354
356
353
344
332
327
328
317
307
306
309
308
298
289
293
294
294
298
299
296
297
301
300
296
294
298
307
306
292
292
301
298
299
304
307
302
296
305
310
302
300
305
305
307
308
304
299
295
303
304
296
304
310
307
304
311
317
319
303
304
316
313
310
315
313
303
299
304
303
300
303
313
303
293
296
303
306
300
296
311
336
352
368
363
348
324
287
258
261
284
305
313
308
307
314
320
320
317
319
322
325
310
309
318
318
316
320
325
323
321
324
327
322
330
343
330
322
328
334
331
333
341
343
342
345
354
350
348
354
366
368
351
348
351
355
354
348
336
327
322
321
319
308
302
314
316
296
293
304
309
305
303
304
305
302
301
307
310
313
311
305
302
303
305
313
315
307
307
316
316
311
313
320
316
319
318
312
305
313
321
319
315
321
325
320
316
322
328
329
333
325
318
310
309
317
319
315
314
318
318
315
317
323
323
307
304
311
319
329
353
372
370
354
339
323
287
271
292
319
327
322
317
320
317
321
327
330
325
326
330
330
324
326
335
336
332
336
335
330
325
327
339
336
335
340
344
340
342
349
349
347
353
357
355
353
357
365
363
361
365
369
366
359
358
355
346
342
337
324
315
312
319
321
316
313
317
318
313
312
315
316
312
313
320
318
313
315
320
319
314
316
321
318
315
317
321
320
316
320
324
320
317
319
322
318
319
324
321
317
322
327
323
321
327
326
321
323
330
333
327
323
325
325
317
313
317
318
315
316
320
319
314
315
320
319
315
321
339
355
370
369
354
337
314
287
284
303
314
320
325
323
318
322
325
321
320
325
327
321
322
328
328
323
323
329
329
325
324
330
325
326
333
332
329
332
337
335
332
336
345
341
339
344
351
348
345
350
356
352
350
353
351
342
334
332
327
318
311
310
310
305
302
309
310
303
303
309
309
303
303
311
311
306
307
310
309
304
308
313
312
305
308
313
310
307
310
316
311
307
311
315
311
309
318
312
309
315
319
313
309
313
316
312
312
316
316
310
310
317
317
312
312
317
316
312
312
318
317
312
314
320
318
314
315
319
317
315
317
320
316
314
318
320
317
316
320
322
318
316
322
323
317
317
323
323
318
318
324
323
319
317
324
324
321
321
325
324
320
326
323
320
322
326
322
319
324
328
322
320
324
328
324
320
325
328
323
321
327
329
322
320
328
333
329
327
330
334
330
330
336
338
336
338
344
337
329
326
330
325
318
320
326
324
319
323
325
320
316
325
343
360
382
391
380
357
332
304
300
312
319
325
322
320
325
327
323
321
326
328
325
321
327
328
324
324
330
331
325
326
333
333
329
331
337
336
334
336
341
338
335
342
348
346
343
351
355
351
350
357
362
358
357
365
367
361
356
357
353
340
333
331
327
320
317
319
315
308
308
313
313
307
308
313
313
309
314
310
308
311
315
311
308
311
315
312
309
312
317
312
308
314
318
312
310
315
318
314
312
315
315
310
310
317
316
311
312
319
316
309
311
317
315
311
312
318
317
313
314
317
315
312
315
320
316
311
316
318
314
311
316
318
314
313
318
321
314
311
319
321
314
319
320
314
313
320
319
313
315
320
319
317
318
323
320
315
318
323
320
317
318
323
321
315
317
323
319
315
319
322
317
316
320
323
319
317
320
322
319
321
327
329
325
326
332
333
329
332
340
340
331
326
327
321
314
314
321
319
314
317
323
318
312
312
329
348
378
400
384
355
337
311
282
291
311
321
318
316
321
321
317
315
321
324
318
315
321
324
321
321
328
325
318
320
328
327
323
326
331
330
325
328
337
335
331
335
342
340
338
344
350
350
349
354
361
361
359
364
366
362
362
362
356
347
337
335
329
316
312
309
302
302
307
304
296
297
303
302
300
302
308
303
300
303
307
303
300
303
307
305
302
304
308
305
301
305
309
305
302
309
311
303
302
308
310
306
306
310
312
305
304
310
310
306
305
312
309
303
307
311
308
305
307
312
310
306
308
315
313
309
310
313
305
312
316
312
308
314
318
311
310
313
316
313
313
319
320
313
312
318
319
314
313
319
319
313
313
318
319
315
316
322
319
314
317
322
319
313
317
324
321
316
320
326
320
315
319
324
322
317
322
325
320
317
322
324
323
328
332
331
327
330
337
337
334
337
346
336
332
335
327
319
319
325
323
319
321
325
322
316
315
325
335
350
383
417
406
372
348
319
281
287
315
328
326
323
326
330
323
320
328
331
327
323
332
335
327
327
335
336
329
331
334
336
333
335
341
341
336
340
346
343
339
345
352
350
348
354
361
361
364
372
371
373
376
379
375
373
377
376
361
350
346
340
329
323
321
318
310
309
312
310
303
304
310
309
306
306
310
309
306
308
313
310
304
309
315
310
306
310
316
310
307
312
316
311
309
313
313
310
308
316
318
313
309
315
316
311
312
318
317
310
308
315
309
310
316
316
310
313
317
314
310
313
317
315
312
316
321
315
310
317
319
317
313
317
320
316
314
320
322
317
318
322
323
315
313
321
323
317
313
320
321
316
316
322
323
318
318
324
322
315
316
321
320
315
320
325
319
313
318
323
321
317
321
324
321
318
324
319
317
323
327
323
324
328
331
329
332
336
334
332
337
345
345
334
330
328
320
316
317
322
321
316
315
322
319
311
309
320
330
352
394
427
408
370
338
301
269
281
310
321
319
318
321
322
317
316
322
326
320
317
323
325
321
322
326
326
322
326
332
330
325
334
335
331
333
337
337
334
341
348
345
343
351
359
357
356
363
369
367
367
374
379
374
371
372
368
355
345
342
335
322
313
313
310
301
298
304
304
298
297
303
303
298
299
304
303
299
302
306
303
299
303
307
303
300
304
310
306
304
306
310
306
303
308
305
303
309
312
306
304
310
312
306
307
314
312
304
304
313
313
309
309
313
313
307
309
314
313
309
310
315
312
308
312
316
313
310
317
321
314
310
316
319
315
313
316
317
313
313
316
318
314
316
321
321
312
310
317
322
317
315
320
321
316
316
323
319
314
324
323
320
321
324
320
313
318
324
321
318
320
325
320
317
323
327
323
323
329
328
325
326
332
334
333
336
343
343
335
332
332
325
315
315
322
321
315
315
321
320
316
318
319
317
328
362
406
427
409
373
340
297
267
288
318
320
318
325
327
323
321
326
326
321
329
331
323
322
330
332
328
328
334
334
328
329
337
337
332
336
343
342
338
342
348
347
345
350
358
358
359
367
373
370
368
376
382
378
376
381
379
368
359
353
344
332
326
323
318
308
306
311
306
298
298
303
303
301
301
308
305
302
303
307
304
302
304
306
303
308
311
304
301
307
312
307
305
311
312
306
304
310
315
308
305
311
312
308
308
310
311
308
309
314
313
308
309
316
315
311
311
315
313
309
312
318
316
310
312
315
312
310
313
316
313
311
317
319
313
310
314
320
315
313
315
317
313
312
317
319
314
320
320
315
314
321
321
314
315
320
319
316
316
320
320
316
319
322
324
322
323
327
327
325
331
336
333
332
340
343
335
326
325
322
317
313
316
319
316
315
319
319
312
311
319
330
345
379
423
426
388
349
319
279
271
301
321
323
323
326
330
325
322
323
327
326
328
329
327
324
329
333
328
326
332
338
334
332
337
340
340
340
344
347
341
341
350
354
351
353
359
362
363
368
374
374
373
376
383
382
377
379
378
365
354
346
343
331
321
320
317
312
306
308
310
306
304
308
309
306
303
309
313
305
303
310
310
306
309
314
308
310
317
315
308
310
316
314
312
314
318
316
312
315
321
317
312
315
319
316
310
312
317
316
311
315
318
316
312
316
318
314
313
318
316
312
313
319
321
316
315
319
319
312
313
321
318
313
316
323
320
316
318
323
320
317
319
324
322
323
324
326
324
327
333
330
331
340
340
330
324
325
323
315
313
320
320
315
315
319
318
314
313
317
320
332
362
398
406
380
348
323
287
266
287
318
321
316
322
328
324
320
324
330
326
323
328
331
327
324
331
335
329
327
334
336
331
331
336
340
335
337
344
343
340
343
350
349
352
360
361
360
366
373
372
370
374
378
376
373
373
374
362
348
342
338
328
318
316
317
309
305
310
311
305
305
307
306
302
302
309
313
306
303
312
310
305
308
312
310
307
310
314
312
308
309
317
312
308
312
319
315
310
313
316
313
311
315
319
315
311
320
313
311
318
321
315
315
322
326
319
320
328
327
323
325
336
337
329
328
331
323
315
315
318
316
315
318
321
316
312
316
320
316
310
320
346
374
393
391
372
341
310
278
273
294
312
322
325
320
320
327
329
326
326
330
330
328
327
331
330
327
329
336
335
331
338
336
331
336
342
341
337
342
346
345
345
351
355
355
355
361
366
364
363
370
375
372
371
375
372
360
354
358
348
323
314
317
312
302
301
307
305
300
299
305
306
299
300
306
303
299
303
306
305
299
303
310
306
302
306
308
305
311
313
305
299
300
306
306
303
307
309
306
306
309
309
306
306
310
310
307
309
316
315
311
313
320
316
315
321
332
333
314
309
313
310
306
307
310
306
303
307
313
308
306
310
312
304
304
320
343
363
379
378
361
323
290
267
268
289
307
314
314
314
316
318
319
315
317
324
323
317
326
324
326
329
323
318
319
322
329
329
326
333
337
331
330
338
343
340
342
349
358
352
345
354
357
356
357
363
367
364
365
368
362
352
346
340
330
324
320
312
303
299
302
305
301
297
300
305
303
298
301
305
301
298
302
304
305
307
300
300
298
298
304
305
302
308
311
304
301
308
307
304
314
314
300
294
300
310
309
303
306
313
310
307
310
317
314
311
313
319
317
317
327
323
308
301
304
309
305
302
307
309
303
303
310
312
307
304
306
306
309
339
369
373
359
343
325
299
267
268
296
312
307
308
318
315
309
315
319
317
327
325
314
310
320
326
322
318
326
331
326
322
329
333
328
330
337
340
341
345
339
334
335
340
352
355
354
355
361
362
361
365
371
368
362
360
360
350
342
326
319
312
309
313
314
309
303
308
311
307
303
308
312
307
305
318
316
300
298
307
312
308
313
316
313
310
313
314
313
313
319
316
314
323
320
308
305
313
317
314
310
315
318
315
310
316
321
316
312
318
321
316
313
317
320
316
318
329
326
308
305
317
323
318
319
326
325
323
322
325
326
327
334
339
333
326
322
324
320
314
317
323
319
314
318
322
315
319
324
325
320
334
361
383
382
367
341
311
280
281
304
316
316
322
325
322
321
327
328
322
323
329
329
324
324
329
328
325
328
338
335
320
321
330
330
327
330
334
332
331
338
343
340
338
343
348
346
347
354
359
357
358
363
363
360
358
360
356
344
334
322
313
310
312
309
310
305
299
298
297
300
306
301
297
302
307
303
298
302
308
304
301
305
310
305
303
308
309
305
304
310
310
306
306
312
311
305
306
312
312
307
307
310
311
307
308
315
315
309
312
319
314
309
310
317
314
310
313
316
313
309
314
318
314
316
319
314
312
318
320
315
314
320
321
314
313
318
320
315
314
320
321
316
317
322
320
315
316
322
322
317
318
323
320
316
318
323
318
315
320
324
320
317
322
325
321
315
321
327
321
318
322
323
319
317
323
325
322
319
323
325
320
318
325
325
321
321
324
320
323
327
323
318
323
328
325
321
323
328
325
321
324
328
324
318
323
328
326
322
325
330
328
327
331
333
331
329
332
334
332
335
342
341
333
329
328
325
320
322
327
324
319
324
331
327
320
320
321
322
327
347
378
399
394
382
365
334
297
302
322
325
325
329
324
322
328
330
325
325
331
329
324
326
333
335
328
328
336
336
331
332
339
337
333
337
342
341
336
341
347
345
343
348
355
351
350
356
363
361
360
367
370
366
365
371
373
364
355
354
350
336
330
331
326
316
313
318
319
312
311
319
316
310
309
318
316
315
319
316
311
314
318
316
312
316
320
315
312
316
321
316
312
318
320
315
315
319
320
315
313
319
321
316
316
320
322
317
317
323
322
316
317
323
322
318
320
325
323
316
318
324
321
317
321
325
320
316
320
326
320
317
320
324
321
320
324
324
319
321
326
319
319
324
323
320
320
325
325
319
320
326
326
322
321
327
326
321
322
326
324
321
323
327
323
319
323
328
323
321
323
327
323
320
324
328
321
319
325
327
324
322
324
323
319
320
328
329
320
320
327
328
322
322
327
327
322
323
328
327
323
325
328
325
324
338
332
329
338
341
337
337
343
345
336
331
332
329
323
317
321
323
320
317
320
321
316
315
324
334
352
385
407
392
362
341
313
290
296
313
324
324
319
319
326
321
316
320
323
321
317
322
328
323
320
325
327
323
321
328
332
327
325
332
335
329
330
335
337
335
342
346
341
344
352
355
352
356
364
365
361
366
373
368
361
361
364
354
340
333
331
324
314
312
313
307
303
307
310
304
303
306
307
302
301
307
309
304
300
306
309
304
304
310
308
303
304
312
312
305
305
312
311
305
309
314
310
305
308
314
311
306
309
311
305
310
316
310
306
312
317
312
308
313
315
311
310
314
315
310
310
315
314
311
312
316
315
310
311
317
316
312
313
318
315
308
311
320
317
311
312
319
317
314
316
319
317
315
320
321
316
313
320
325
317
314
320
322
317
316
322
323
316
317
323
323
319
324
323
319
319
324
324
318
321
325
321
316
322
327
323
319
321
326
323
320
322
327
322
320
326
330
329
331
338
351
348
330
330
335
333
334
339
334
321
315
321
323
317
317
321
320
316
317
319
320
324
345
378
400
389
368
351
317
280
289
314
319
319
322
325
320
324
327
321
318
323
326
322
319
326
328
322
323
330
330
326
325
332
334
329
329
336
337
334
336
342
342
339
344
352
352
349
354
362
361
359
365
372
370
368
370
370
361
353
351
345
328
319
320
319
310
306
309
309
303
302
308
307
302
304
310
309
304
303
308
303
306
313
309
303
306
312
310
306
308
312
309
304
310
315
311
307
311
314
309
307
311
313
308
307
313
315
309
309
315
315
309
310
314
313
309
311
317
314
306
308
314
311
307
310
315
315
308
311
316
313
310
313
317
314
311
316
319
313
311
316
320
316
319
320
314
312
317
320
314
312
318
320
316
315
321
320
315
315
321
319
314
316
322
320
315
318
322
320
315
318
323
320
317
318
324
319
315
321
325
318
314
320
323
319
318
322
326
321
319
326
329
323
325
334
334
327
327
339
342
335
334
335
327
317
316
321
314
316
322
319
315
317
320
318
321
339
370
396
394
373
350
318
278
279
305
314
316
321
324
318
317
322
324
320
319
325
326
319
320
327
326
319
320
328
328
323
325
332
332
328
330
334
332
330
334
341
340
337
342
348
345
345
354
359
357
357
364
368
363
362
369
360
352
350
343
328
320
319
314
303
302
305
303
297
297
300
297
292
297
302
300
295
298
305
301
295
298
304
300
297
303
304
299
296
302
305
301
300
304
306
301
299
305
308
302
302
307
307
302
303
305
304
299
302
309
307
301
301
308
307
304
306
309
305
308
313
306
301
308
311
305
304
309
312
307
304
308
311
306
306
312
314
307
306
312
314
307
307
311
315
310
310
314
314
309
309
315
315
312
312
318
316
308
311
318
317
311
313
319
314
311
315
320
317
313
316
321
316
314
318
320
316
313
320
322
317
316
322
318
316
322
323
320
322
327
326
325
325
331
331
329
335
341
336
328
324
323
318
314
318
322
318
315
320
323
318
315
318
321
326
342
373
401
389
362
344
317
277
280
312
325
322
321
328
327
322
324
330
330
325
327
332
330
326
328
334
332
328
333
339
336
331
341
340
337
342
348
345
343
348
353
349
349
356
361
359
362
372
374
371
370
376
378
376
377
382
377
366
361
357
348
338
332
331
325
318
319
322
318
313
316
320
317
312
317
321
316
314
319
321
317
314
319
322
317
314
321
323
318
315
321
322
317
318
324
323
320
324
323
317
318
325
323
317
320
326
322
316
319
326
323
317
320
325
321
317
321
324
319
317
322
325
320
318
321
325
320
317
321
325
321
319
323
324
318
319
324
324
319
319
326
324
320
322
328
325
321
322
326
323
319
324
328
321
318
322
325
321
316
321
321
317
321
325
321
319
323
325
322
319
324
325
319
320
326
322
318
321
326
323
318
320
326
324
320
320
326
326
324
328
332
330
328
330
334
330
328
337
346
340
331
330
326
319
315
320
322
318
315
320
321
316
316
321
319
318
333
363
390
394
372
353
328
289
300
317
317
321
326
324
319
322
328
325
320
324
330
324
321
328
333
328
324
327
333
329
327
333
337
332
330
336
340
336
336
342
343
342
344
349
349
348
353
362
362
359
362
370
370
365
369
373
368
359
355
350
337
326
323
321
310
306
307
304
298
296
301
303
295
300
304
298
297
302
302
298
299
305
306
298
298
305
303
298
298
304
305
299
300
307
305
299
301
306
304
300
304
307
304
301
303
307
303
300
304
309
303
298
304
309
303
301
307
306
300
300
306
307
302
300
306
306
304
305
308
307
303
304
309
308
303
304
308
303
307
314
310
302
305
311
309
304
308
313
310
307
310
312
306
305
310
313
308
308
313
313
308
308
313
313
307
305
313
314
309
310
315
314
313
315
320
316
315
320
325
322
319
326
334
331
323
321
319
313
308
312
316
311
307
312
316
311
307
310
314
315
359
387
385
361
340
317
277
263
294
315
313
316
322
321
315
315
320
320
317
321
326
321
314
319
325
322
320
324
328
324
322
327
331
329
327
330
333
330
330
337
342
340
339
346
349
348
348
354
357
355
359
367
368
362
364
369
364
352
346
343
334
320
313
313
298
300
303
297
292
297
301
293
287
293
300
298
297
301
303
296
292
300
306
300
292
299
303
294
294
303
304
297
297
305
303
297
297
301
299
297
300
306
304
299
302
306
303
298
302
307
306
302
303
306
303
302
307
310
305
303
309
312
306
303
307
307
305
306
310
304
306
306
308
307
313
318
318
311
309
314
316
312
317
320
312
308
312
315
315
314
318
316
311
312
316
323
319
314
318
323
322
317
317
318
314
319
325
327
320
317
322
324
318
319
321
317
314
318
328
321
311
316
331
335
330
336
348
338
332
330
340
342
318
312
309
311
318
318
314
323
332
324
304
299
304
320
332
345
391
420
395
365
358
326
303
328
343
354
363
388
401
394
393
403
414
407
406
407
402
408
418
426
430
440
455
481
487
473
457
451
462
462
486
512
507
494
484
502
512
479
447
413
415
438
453
430
386
394
407
409
402
376
372
353
328
307
304
300
242
218
224
222
218
222
225
210
201
193
167
164
158
163
162
155
160
160
170
175
163
165
173
162
181
198
189
170
172
175
182
184
172
178
169
167
175
178
187
190
189
201
205
206
182
167
173
176
173
184
176
172
193
183
184
187
181
185
195
183
181
183
199
208
197
193
207
217
224
233
248
276
305
307
306
311
312
295
284
300
298
302
314
329
329
324
318
312
313
326
333
322
318
325
334
344
345
336
337
340
329
326
340
355
341
329
336
354
351
328
322
323
328
324
320
315
307
322
331
308
299
302
307
309
305
317
315
298
301
305
313
323
330
347
375
394
373
352
338
313
287
287
307
310
303
306
310
307
302
298
329
305
298
300
302
308
315
320
313
311
321
329
320
313
327
332
323
345
335
329
324
328
348
343
337
335
337
334
326
332
343
336
345
352
358
360
346
334
327
327
321
306
284
283
286
288
282
262
269
277
260
256
271
275
274
271
264
258
273
288
283
276
270
284
293
301
308
281
289
300
301
305
315
318
308
325
345
346
348
346
351
347
345
362
375
367
371
373
376
377
374
373
376
375
387
375
360
363
373
372
367
358
360
351
344
350
346
340
342
344
355
345
327
333
341
340
334
335
338
328
318
323
329
344
340
321
321
317
318
323
327
325
319
323
325
320
313
317
319
322
323
321
315
308
319
326
316
311
319
331
325
330
326
334
342
334
332
334
330
331
331
320
314
317
325
329
326
336
337
330
339
355
391
411
398
389
379
351
303
296
324
341
349
358
354
349
348
355
345
341
354
365
363
355
357
365
365
363
372
373
370
371
380
383
381
379
384
390
389
387
399
404
396
397
418
420
413
414
426
430
429
431
441
441
443
446
441
430
424
424
422
409
394
393
392
386
382
384
384
380
372
376
381
378
372
368
365
370
370
364
364
367
365
365
362
360
355
349
353
354
360
359
349
351
357
352
346
348
351
351
347
344
349
339
340
345
342
338
335
337
338
328
328
335
335
331
340
346
339
327
325
330
329
323
325
329
325
317
320
325
329
330
330
332
326
319
319
318
314
311
316
314
312
316
319
312
310
318
322
321
309
316
325
317
307
308
313
311
313
315
316
310
311
315
314
314
308
317
325
321
321
318
314
312
314
322
318
315
325
332
322
329
333
322
317
334
345
337
320
329
331
323
312
316
320
319
313
310
318
321
315
317
323
320
330
367
395
381
362
341
318
284
281
313
329
318
315
325
328
318
326
331
329
324
325
329
328
326
326
329
331
328
331
338
336
331
331
338
337
335
336
341
338
344
356
347
345
356
359
359
357
361
367
366
370
376
370
366
372
372
365
356
360
349
340
328
323
320
314
311
312
314
314
305
307
304
304
303
308
313
312
304
299
300
306
305
313
313
307
302
304
304
306
310
312
311
302
306
317
311
303
307
316
310
305
311
317
312
304
313
312
312
312
313
311
303
308
318
314
310
314
310
308
313
318
311
308
309
313
314
308
312
321
320
308
306
317
318
314
314
317
315
309
314
322
316
309
313
317
316
311
314
319
318
315
312
317
321
317
313
317
312
312
314
319
320
320
321
318
313
313
318
321
319
322
324
318
313
314
314
319
322
326
321
320
325
329
330
324
329
336
333
327
331
340
337
331
329
334
322
318
313
311
312
314
321
324
314
316
321
322
320
334
365
394
381
367
353
332
290
272
303
317
319
322
326
326
318
319
326
325
323
322
325
322
320
332
326
321
323
326
326
322
328
331
326
328
336
340
331
331
342
340
334
328
345
354
351
352
357
361
360
364
362
361
361
361
369
367
350
336
338
333
324
317
316
311
301
301
308
302
294
299
304
294
289
295
297
296
300
