330
313
323
341
322
308
323
344
329
320
333
346
329
321
341
349
330
329
346
351
340
341
357
359
340
343
374
378
360
360
380
372
353
356
367
340
337
354
334
311
312
328
318
304
310
321
299
293
313
326
301
292
312
325
303
294
317
327
305
295
308
315
308
308
323
322
304
303
326
325
303
301
326
321
307
309
329
317
303
312
329
317
306
314
331
312
297
311
336
317
303
318
330
310
300
321
330
310
331
333
311
306
322
323
305
304
328
328
310
310
331
324
309
311
329
323
310
316
335
323
309
318
337
320
308
320
333
314
305
313
336
325
312
327
340
318
311
332
333
309
305
331
333
311
311
336
333
310
307
330
326
307
316
340
331
309
313
338
328
312
317
341
314
325
342
328
320
335
354
336
325
336
340
314
309
332
332
307
306
330
332
309
304
321
314
300
320
360
382
399
412
419
388
340
296
290
298
303
319
337
321
309
318
332
318
312
324
332
317
316
332
340
316
310
334
347
325
317
338
344
323
320
341
343
328
331
351
331
333
356
354
348
356
373
363
352
363
384
368
353
364
382
361
344
350
360
339
320
325
334
312
303
318
323
303
297
314
314
292
294
319
322
299
296
319
318
300
299
317
314
300
306
330
319
302
304
327
316
299
307
328
315
301
312
329
313
302
315
331
312
319
332
309
300
322
334
314
309
327
329
306
306
332
331
311
308
331
331
309
312
336
328
306
308
337
326
306
314
340
325
306
321
346
327
313
326
337
316
308
327
340
322
317
334
338
313
301
324
345
323
316
340
337
317
318
337
336
317
317
339
330
313
321
346
316
322
346
331
311
323
345
329
321
334
348
326
311
328
345
327
320
337
344
321
314
344
358
332
329
358
361
343
338
354
351
334
333
347
329
315
323
341
331
315
320
339
327
311
315
332
322
327
386
449
447
416
398
373
304
278
312
339
325
320
336
338
320
318
336
320
324
341
336
322
323
344
342
326
328
352
341
321
326
357
353
334
340
360
345
329
340
362
355
352
367
381
362
352
367
381
369
367
384
392
372
364
380
376
348
340
358
346
317
312
327
320
306
306
322
311
296
306
325
312
297
307
330
314
299
309
328
311
312
323
312
307
319
326
306
300
323
332
310
301
323
328
305
301
326
330
310
306
325
322
305
307
327
322
307
316
335
322
305
314
333
320
307
316
331
316
309
324
337
316
307
323
339
318
306
325
339
315
306
326
333
307
301
323
331
311
305
325
327
314
320
344
305
311
335
327
313
319
336
326
316
326
344
329
311
325
347
328
321
338
353
334
323
339
350
328
323
345
352
332
327
346
354
334
322
343
345
329
331
354
351
338
343
367
361
343
352
377
364
345
348
363
341
326
338
354
337
324
336
352
340
333
336
340
317
316
390
405
432
450
429
372
328
303
302
310
323
345
340
321
322
345
341
323
326
348
344
330
325
343
332
320
332
351
335
325
338
354
334
326
350
360
341
335
355
366
347
344
363
376
367
357
373
377
362
367
391
388
371
372
395
388
366
360
376
365
339
328
338
321
310
328
313
298
310
327
311
301
313
327
309
299
322
339
305
297
318
322
300
301
325
328
308
306
330
330
309
312
333
326
311
326
338
321
305
315
342
328
314
321
340
326
313
323
341
327
314
334
352
319
306
329
344
326
319
338
345
325
320
343
349
326
329
350
314
316
340
336
318
318
342
337
320
325
347
334
319
333
360
333
311
323
345
328
315
333
346
327
316
334
349
328
325
354
354
328
330
349
350
335
336
355
349
325
321
338
332
310
310
332
324
306
313
333
324
314
310
323
326
344
391
432
404
366
346
328
269
255
330
312
305
325
337
319
317
329
326
306
307
330
333
313
311
333
332
313
316
339
333
314
319
343
333
318
331
350
329
315
330
354
337
324
341
363
349
341
357
372
353
343
364
374
355
351
353
343
313
303
318
313
288
280
299
295
274
275
299
291
273
275
298
290
283
293
279
270
282
301
283
272
285
303
286
276
292
305
287
279
296
312
292
273
291
303
285
279
301
306
284
281
303
303
285
285
307
299
281
286
309
301
290
298
308
293
279
290
316
299
286
297
318
301
291
306
322
304
297
316
331
315
313
320
314
288
285
307
291
289
311
310
291
291
315
308
288
288
311
316
324
359
406
398
357
326
312
260
239
279
320
306
293
309
327
309
299
315
328
307
300
318
328
310
313
327
322
302
304
330
332
313
312
335
334
315
318
342
338
322
328
354
346
332
342
370
362
336
345
371
359
349
375
353
338
346
352
325
308
317
321
296
286
303
310
288
283
303
304
285
293
306
295
276
283
307
302
285
291
312
302
285
294
318
304
287
298
320
306
291
304
330
308
286
301
318
302
294
310
322
300
293
313
320
299
294
314
319
299
296
317
325
301
291
313
313
301
322
314
296
304
327
316
300
310
332
315
303
318
340
326
314
328
345
309
290
308
324
305
297
316
325
304
299
320
323
302
296
315
320
313
338
391
410
390
368
350
304
252
271
320
317
302
312
333
319
304
314
334
318
304
318
335
316
307
321
337
327
312
320
315
313
334
340
320
318
342
346
326
326
350
350
334
338
361
358
342
353
382
362
340
351
377
365
347
352
363
340
319
325
335
312
296
307
321
300
289
307
318
297
296
315
311
289
288
312
316
295
293
314
314
295
297
320
315
297
299
320
313
297
310
330
305
287
323
310
296
309
326
308
298
312
326
309
300
315
328
307
299
317
326
308
312
324
318
299
299
323
323
304
304
326
323
303
306
331
323
304
310
332
322
314
318
326
310
300
314
334
316
303
317
335
317
304
320
334
315
305
324
333
312
306
327
339
319
304
321
327
309
332
330
309
311
334
328
310
316
337
327
312
319
337
324
317
330
336
317
307
321
341
322
311
327
342
321
312
332
342
321
314
335
343
325
320
341
353
329
317
340
344
331
335
355
345
322
323
343
331
313
319
342
330
313
322
341
327
318
320
335
330
346
398
408
377
366
339
288
292
326
340
322
316
336
339
319
316
338
339
319
319
341
336
317
321
344
344
326
320
341
334
320
328
350
338
324
335
354
339
328
343
362
345
336
355
375
363
345
360
373
357
354
376
381
358
352
371
366
338
329
344
334
308
307
328
317
295
322
310
293
301
328
312
286
296
320
305
292
306
322
303
292
310
323
302
295
314
323
302
296
319
333
301
289
312
318
300
300
321
319
299
301
324
318
299
303
324
315
299
306
327
314
299
316
333
304
289
305
325
307
297
312
325
307
298
315
326
306
299
319
326
300
320
329
309
297
316
318
301
302
325
319
301
305
327
317
300
307
329
317
299
308
329
314
301
318
341
312
296
312
329
311
301
319
330
310
304
322
329
310
305
327
331
309
305
334
339
306
299
325
325
310
313
334
324
307
313
336
324
309
321
346
332
317
333
345
329
333
347
329
319
334
341
316
306
324
332
311
306
326
331
309
304
323
328
322
348
393
416
396
380
375
331
272
282
327
325
309
315
336
321
306
317
336
322
316
318
328
312
307
325
338
320
311
330
340
321
314
335
342
324
321
343
345
326
327
352
355
344
355
354
341
350
376
368
352
362
384
372
357
365
379
356
336
341
350
324
306
317
337
304
284
302
316
296
288
307
314
294
290
314
316
293
291
314
315
294
294
315
310
298
304
314
302
289
300
322
309
294
304
324
309
295
306
326
307
296
311
327
308
297
315
335
290
310
322
303
297
317
322
302
299
321
322
302
302
323
320
301
304
327
320
301
307
335
327
299
303
326
316
301
312
332
315
304
317
333
313
304
319
331
311
311
329
326
303
302
324
331
310
305
327
328
308
308
331
326
308
310
333
335
308
303
328
322
307
315
322
307
319
339
321
307
319
338
322
316
343
350
322
316
340
352
332
326
346
350
326
320
335
330
308
306
328
328
309
311
332
332
311
302
330
343
358
401
438
409
362
338
314
276
285
316
337
320
310
331
339
310
302
323
336
317
311
331
339
320
314
336
340
320
341
341
321
325
357
344
318
326
352
347
332
339
363
355
341
351
375
363
351
365
384
369
359
381
393
364
349
364
369
342
326
337
339
314
304
321
324
306
301
310
307
293
296
319
314
295
298
322
315
295
299
323
314
299
308
332
320
293
301
324
311
300
313
330
300
316
330
311
304
321
331
316
309
318
321
302
303
324
327
306
306
329
326
308
309
330
327
318
310
321
317
303
311
333
319
304
313
336
319
305
319
336
316
304
328
342
310
298
318
331
313
308
327
332
311
307
327
330
312
309
331
329
310
313
345
329
303
307
325
309
313
334
323
308
318
341
331
319
332
358
339
314
330
351
332
321
332
339
315
305
323
330
310
304
324
332
312
298
317
318
301
316
365
391
395
394
396
356
303
266
283
300
309
320
330
314
305
320
338
321
310
323
342
323
311
327
340
322
315
333
351
329
331
343
326
324
345
347
328
330
356
355
342
347
361
354
342
352
376
369
353
364
386
374
358
365
384
361
340
344
353
333
314
312
319
299
289
306
318
295
287
308
314
293
289
311
312
292
299
313
306
287
291
316
312
291
296
320
313
295
301
321
310
294
302
323
302
303
319
304
294
308
323
304
296
312
323
304
298
316
329
309
291
310
319
301
297
320
318
297
299
323
319
300
302
324
320
309
303
320
312
299
307
328
315
301
311
330
312
301
314
329
312
301
317
337
317
296
312
325
310
305
327
331
311
310
331
335
316
316
340
318
314
331
323
304
308
336
315
292
303
327
315
300
310
327
307
297
320
357
368
384
400
393
345
306
282
284
290
304
325
329
312
317
327
320
302
305
329
329
311
312
334
328
312
317
338
328
311
320
342
330
319
335
343
321
312
331
351
335
325
342
360
344
357
369
350
345
367
377
357
360
377
365
338
335
350
340
313
309
328
318
294
297
319
309
288
294
317
304
286
297
325
300
279
292
315
300
287
301
319
302
293
308
319
300
293
311
321
301
297
318
322
303
304
331
320
294
297
323
321
301
303
326
319
302
307
328
304
313
334
317
302
312
330
317
311
315
324
308
301
318
331
311
304
324
334
313
306
325
331
310
306
326
327
312
312
323
320
305
309
333
324
305
310
331
321
306
315
335
321
306
317
335
319
307
319
336
322
315
320
329
312
304
322
333
312
307
327
334
313
308
332
312
311
330
330
314
319
345
345
320
319
346
341
328
334
354
341
323
332
348
324
306
319
336
319
306
320
334
313
310
325
326
312
326
377
420
405
381
374
348
285
274
317
326
309
309
330
325
307
312
334
326
311
323
344
319
300
315
339
325
311
323
342
326
331
347
329
320
339
352
333
325
346
357
347
338
349
358
344
344
366
368
353
357
380
376
356
358
376
363
338
334
350
332
308
309
334
315
289
297
316
302
291
304
320
302
291
308
320
300
295
315
323
300
295
317
323
302
298
319
318
307
306
317
314
297
300
322
301
306
327
317
302
310
331
317
301
310
328
313
303
314
330
316
311
315
321
305
301
320
331
309
303
322
327
307
304
325
328
307
306
328
325
306
308
331
327
316
308
324
318
304
311
334
322
305
314
336
319
306
320
336
318
306
319
333
316
309
326
341
325
304
328
312
309
328
330
310
309
332
329
309
311
333
330
311
315
338
330
312
316
339
337
314
317
341
332
322
336
355
337
328
343
356
335
324
334
340
315
307
324
332
313
307
327
332
319
314
321
324
323
354
415
429
394
369
360
308
268
294
333
326
311
320
338
323
320
340
323
308
330
342
313
304
326
339
320
314
333
343
324
319
339
345
323
322
347
351
332
331
352
351
337
350
369
354
338
350
378
369
352
359
382
371
353
359
373
352
332
335
346
321
302
314
326
304
302
310
310
288
286
308
315
294
289
310
316
297
292
313
294
296
320
312
293
301
331
308
285
295
320
309
292
300
320
306
295
308
325
304
294
310
324
304
294
311
321
303
298
317
322
302
305
321
313
295
297
321
319
298
301
323
317
299
302
325
317
299
305
327
317
299
310
336
312
292
305
327
310
301
315
328
310
301
330
309
302
322
332
311
304
324
327
307
313
336
322
297
302
330
325
305
310
332
325
307
312
335
323
306
316
335
321
306
316
335
327
313
314
330
316
310
329
344
325
318
341
352
331
325
345
349
326
319
337
335
309
309
331
328
309
316
341
321
298
302
328
324
365
425
425
389
369
356
295
263
297
333
321
311
324
337
317
307
323
338
326
308
321
331
311
309
332
337
316
317
336
336
318
319
342
337
319
326
348
339
324
339
368
344
325
340
364
352
344
357
378
363
354
368
381
365
356
371
375
346
331
345
352
312
296
315
295
292
313
312
294
294
316
310
291
296
319
310
295
310
324
300
283
299
322
308
296
309
326
308
297
311
327
309
298
315
328
306
301
327
321
296
294
318
321
304
304
324
322
302
302
325
322
303
305
327
320
311
311
319
307
295
304
330
320
303
312
331
315
303
332
314
304
325
338
308
299
317
327
311
307
329
331
310
306
329
329
308
307
330
338
313
303
327
324
309
314
335
326
311
319
339
325
311
320
338
322
311
333
341
311
306
327
343
329
323
343
354
332
327
351
357
336
329
345
339
318
321
332
322
304
309
332
328
314
335
321
309
329
379
399
408
409
399
352
306
270
286
301
306
324
340
321
312
327
338
321
316
334
340
319
313
333
342
330
318
335
336
319
321
349
346
326
330
354
344
330
339
362
351
339
350
374
361
348
362
381
367
358
374
392
376
372
377
377
353
344
359
325
314
331
332
306
297
317
316
297
295
318
315
294
297
327
319
289
291
317
311
297
305
324
308
293
305
325
308
295
307
323
307
296
312
326
306
296
315
322
303
305
325
315
294
292
314
315
296
298
321
319
298
297
318
315
300
304
324
314
299
306
323
307
297
328
302
291
305
325
308
298
313
325
306
298
316
325
305
300
320
323
300
299
323
324
304
311
326
312
293
300
326
319
299
305
331
321
302
309
334
324
308
320
340
326
315
337
352
314
296
312
327
308
299
314
325
305
303
321
322
301
301
320
323
313
333
383
410
368
359
328
272
255
299
311
300
308
332
321
307
315
335
321
305
317
337
320
310
324
339
318
311
329
340
330
319
330
340
321
320
342
347
326
327
352
354
338
338
363
362
346
351
375
370
362
369
379
365
352
359
376
357
337
338
346
322
303
311
321
302
292
308
301
290
304
313
298
299
320
310
288
290
312
315
297
293
316
316
298
303
326
319
300
302
322
316
300
310
333
322
296
304
324
309
300
316
328
311
301
318
332
310
300
317
329
311
305
324
326
305
303
330
337
303
294
321
324
309
310
329
321
302
309
336
323
306
334
320
303
313
333
318
307
324
348
315
294
315
335
317
307
325
333
312
308
326
333
313
308
330
331
311
310
331
330
311
321
335
319
304
309
331
324
315
324
345
335
319
330
351
338
325
336
353
332
317
328
344
314
300
318
330
309
304
324
331
308
299
322
338
369
421
419
378
351
339
291
275
307
328
318
305
313
333
319
305
317
341
325
308
320
342
323
311
326
340
321
313
331
345
332
316
328
341
323
320
342
349
330
330
354
356
340
344
367
365
348
353
378
373
360
364
383
377
365
356
363
347
325
328
343
319
302
310
305
293
307
317
298
290
309
319
307
291
304
311
296
296
316
316
297
298
320
315
297
303
324
314
296
301
323
314
297
312
335
309
289
302
326
309
297
313
328
308
297
313
327
310
301
315
325
306
299
317
325
314
309
315
312
296
301
326
322
301
302
326
322
301
325
320
305
310
329
315
300
319
329
306
297
314
331
313
298
313
330
314
305
319
328
310
305
325
332
311
305
325
329
308
305
336
333
305
301
325
322
309
313
331
322
309
316
339
331
318
327
348
335
324
336
353
335
333
336
338
318
306
320
330
310
304
321
328
303
321
323
306
317
364
401
412
408
402
368
317
268
293
310
302
310
334
322
304
313
335
322
309
319
334
318
307
324
340
319
314
332
334
313
309
332
342
325
320
339
345
325
326
350
349
331
334
361
362
344
348
373
368
351
365
395
382
352
355
378
364
343
343
331
312
318
328
305
295
308
318
297
290
306
315
295
298
317
311
290
289
312
313
294
292
316
312
294
298
320
313
293
296
320
313
296
304
332
318
291
296
321
310
298
310
327
309
295
311
328
307
300
315
325
304
297
318
326
305
298
326
330
296
289
317
320
303
329
321
299
301
325
317
299
308
331
316
297
308
330
316
312
315
325
307
299
315
332
313
302
320
333
311
304
321
329
309
306
328
339
311
301
324
326
307
310
332
325
307
309
335
328
307
314
338
324
309
329
346
324
313
331
352
335
322
341
357
337
322
336
342
310
327
335
313
305
325
336
325
318
321
316
306
324
374
404
411
409
405
364
305
269
300
317
310
319
337
326
319
321
335
320
308
324
342
326
316
331
344
324
317
336
345
327
322
341
346
329
327
351
361
331
327
354
358
339
342
370
366
349
356
380
373
359
366
377
365
375
389
368
347
356
375
340
308
320
333
311
300
318
326
301
291
313
325
301
295
317
322
304
300
320
318
297
300
326
326
299
292
317
315
300
305
326
313
299
308
328
312
298
308
326
311
299
313
328
309
296
316
328
312
305
313
318
303
301
323
324
301
324
322
302
301
327
324
303
303
324
317
306
311
331
318
302
312
331
316
300
310
334
323
301
308
324
306
301
321
332
312
305
319
327
308
304
323
329
310
308
329
327
305
307
332
340
315
312
336
335
321
324
351
342
324
331
347
329
308
316
335
315
301
314
329
303
315
328
312
311
327
339
345
377
420
408
358
324
310
276
263
295
332
329
310
311
333
328
310
312
335
324
315
329
338
319
303
318
343
327
313
327
347
329
316
330
346
329
324
342
354
336
330
350
359
343
346
379
371
344
346
374
377
358
359
382
376
355
351
348
322
322
334
315
297
303
317
301
287
298
313
306
291
296
308
294
290
305
314
296
288
306
316
297
292
311
312
293
293
318
318
299
296
321
325
295
292
318
311
293
299
321
310
296
303
323
308
293
307
326
309
297
310
324
306
293
308
331
309
291
307
317
300
318
323
299
298
322
321
298
301
325
323
302
302
324
320
304
306
335
320
293
302
327
316
300
309
328
313
300
315
331
312
301
319
333
311
302
320
330
310
305
332
337
304
298
321
324
307
307
329
325
304
308
333
331
316
323
344
337
325
331
349
338
334
339
344
302
313
331
315
304
319
334
314
305
320
327
310
314
353
393
408
404
404
386
324
267
284
312
310
313
334
329
310
311
332
323
310
319
338
324
312
321
340
327
315
336
349
321
308
328
347
331
325
341
351
332
326
344
353
336
335
358
367
347
348
379
372
344
349
380
361
361
383
370
349
346
361
340
317
318
332
313
297
306
322
305
303
309
315
296
289
307
322
303
293
310
319
300
297
315
319
300
300
322
322
300
297
321
328
304
293
319
315
298
304
325
312
299
310
330
315
301
309
328
311
301
311
338
315
297
311
326
305
316
328
309
301
320
326
307
303
322
324
306
306
327
326
305
303
332
330
303
309
331
322
306
312
331
319
305
315
335
319
304
312
333
316
305
321
336
315
308
332
339
308
298
323
333
313
308
328
329
308
310
333
330
310
311
334
327
308
311
333
326
314
325
332
306
319
342
333
320
331
353
338
327
341
355
334
324
338
344
317
308
326
332
310
306
325
337
320
303
316
319
310
327
377
411
413
402
397
356
292
272
311
315
306
316
338
323
309
318
337
330
318
317
327
317
311
326
341
321
313
332
340
320
319
340
348
326
320
346
327
331
358
362
340
332
356
356
346
351
377
369
353
362
385
370
357
369
387
364
345
350
358
329
312
332
334
303
288
309
320
300
291
311
319
300
294
315
317
296
295
319
317
296
299
326
322
295
292
317
310
295
304
325
309
295
307
328
312
299
309
332
319
303
323
306
296
314
327
308
302
319
325
304
302
325
327
302
303
331
319
295
300
324
318
301
305
327
318
303
311
330
318
306
311
336
322
298
305
326
313
304
320
333
312
302
320
332
316
307
324
329
308
310
328
327
308
309
339
329
302
302
329
328
310
312
333
308
314
339
326
311
320
344
336
328
335
345
330
323
340
356
338
322
330
339
317
306
324
336
315
307
326
340
317
302
319
321
308
325
376
407
413
408
400
355
300
268
305
317
300
309
336
329
313
320
340
325
314
327
342
324
316
331
346
331
329
334
336
321
320
348
327
324
346
352
335
337
360
357
337
342
371
367
349
365
387
370
353
363
387
374
361
372
391
370
348
349
358
333
314
321
333
312
308
314
315
296
291
308
316
298
293
314
316
294
292
316
317
297
297
323
317
296
309
327
310
295
302
321
311
297
304
329
315
305
326
309
297
309
327
307
298
314
332
314
293
307
319
302
296
317
322
301
298
320
321
304
304
324
320
299
302
325
320
301
305
327
315
300
315
328
305
297
314
332
311
299
313
329
309
300
317
328
306
301
320
328
308
300
324
335
313
313
343
335
308
309
340
323
321
338
328
307
305
324
317
301
306
327
317
302
311
332
312
295
307
341
350
356
391
416
381
342
325
294
256
271
314
326
308
306
329
332
311
308
329
332
314
312
332
326
312
318
341
333
318
333
350
327
313
326
347
333
321
337
355
336
329
347
363
344
335
374
353
348
374
384
363
358
378
385
370
353
361
351
326
320
335
326
302
301
320
311
293
298
316
301
287
297
318
302
289
299
315
297
285
300
329
310
286
299
314
298
291
311
319
298
291
314
318
299
297
318
318
300
301
322
319
297
299
321
315
308
305
316
306
301
325
315
299
307
326
312
302
313
327
308
300
313
326
308
301
319
327
308
302
324
337
307
298
321
325
303
302
327
328
307
308
330
320
301
310
335
324
304
313
335
323
306
316
338
327
314
324
344
334
315
328
345
329
320
330
333
312
305
323
329
309
305
325
306
306
327
323
305
314
354
382
394
400
409
374
326
288
290
298
301
315
338
325
308
317
337
319
309
322
337
322
314
329
342
333
317
325
333
318
314
336
344
324
319
340
344
327
326
351
350
332
337
360
352
340
356
381
356
338
352
376
364
355
367
381
360
342
356
332
314
323
330
306
298
309
316
295
290
315
325
295
286
310
313
293
290
314
312
292
294
318
311
294
298
318
309
295
301
324
311
296
304
320
314
301
304
318
301
294
309
322
303
294
311
323
303
299
320
326
304
299
320
323
302
301
323
330
308
293
312
315
309
330
319
302
309
330
317
301
311
331
315
301
315
332
313
303
317
327
316
313
321
326
307
303
323
330
311
309
327
330
310
306
329
329
310
310
334
328
311
311
332
332
321
311
329
319
304
314
340
325
307
319
340
323
314
326
337
320
312
327
337
319
315
333
336
322
336
344
332
331
354
351
330
330
351
343
318
315
335
331
312
314
337
327
310
316
334
319
311
332
371
389
413
422
411
365
316
288
306
310
307
328
337
318
311
334
340
318
312
333
335
314
312
336
336
317
319
342
341
329
324
339
329
321
333
353
340
325
358
343
332
348
366
348
344
370
383
352
344
370
386
366
360
379
383
359
348
360
356
325
317
334
329
306
298
317
315
298
301
321
316
299
291
315
307
292
301
322
305
289
304
325
308
296
312
326
308
295
312
323
304
306
316
313
293
295
318
320
299
298
321
319
301
323
318
300
303
325
316
299
303
323
314
305
315
320
303
296
312
329
309
295
312
328
310
300
315
325
305
300
321
327
305
300
322
327
307
304
333
324
298
300
325
320
299
305
330
321
303
311
333
319
302
311
333
319
305
314
334
318
304
324
335
307
298
318
313
305
324
330
310
306
327
334
311
307
327
330
319
317
326
322
306
313
339
336
321
326
348
339
324
335
355
341
323
330
346
330
311
312
328
313
303
318
331
309
302
322
329
304
306
349
387
404
412
419
400
340
282
282
304
303
309
332
331
310
312
335
326
312
335
321
310
321
348
324
306
317
338
324
317
331
345
325
319
336
348
329
322
354
355
323
324
356
364
345
343
370
369
351
355
380
378
361
361
383
381
351
340
353
341
322
322
335
318
300
304
319
302
294
309
320
300
298
313
311
293
290
311
319
299
296
317
320
296
318
318
306
303
317
312
295
300
323
318
301
304
328
320
302
308
328
317
310
312
317
304
300
316
331
311
301
316
331
313
303
319
328
308
304
333
339
302
296
319
322
306
305
330
328
306
307
328
324
308
315
334
324
318
318
327
313
305
316
335
321
308
316
314
309
323
336
317
310
326
342
320
304
323
335
320
320
342
347
326
326
350
351
328
328
352
341
313
311
339
336
305
304
328
320
308
317
335
319
303
317
350
361
381
416
428
385
337
313
287
267
290
324
333
318
324
341
331
309
311
336
334
317
319
341
338
321
343
335
318
324
346
336
322
333
355
341
334
343
353
338
331
350
367
350
341
359
379
363
359
377
386
365
364
386
389
363
353
366
356
328
322
345
325
294
299
322
311
290
296
320
309
292
298
318
303
289
300
321
304
287
301
319
302
292
305
322
311
294
307
318
292
315
322
302
296
318
320
302
299
320
319
300
300
325
320
301
305
332
313
290
301
328
315
297
304
330
313
298
311
328
310
298
311
325
311
305
320
326
311
313
317
316
301
303
324
324
304
306
324
323
309
309
327
323
305
307
328
322
304
309
331
317
305
321
312
297
311
335
322
311
326
339
323
321
339
350
329
319
337
345
324
314
326
328
310
304
326
333
304
300
324
317
296
303
341
359
371
403
417
381
337
314
291
277
291
316
336
322
319
320
327
311
306
322
334
313
304
329
339
316
311
332
339
319
316
338
339
320
343
339
320
325
352
356
332
328
353
349
337
349
370
360
347
358
379
367
353
363
379
361
346
359
364
334
319
337
334
301
292
310
316
296
292
313
314
294
292
314
312
294
298
320
311
292
298
321
312
295
313
326
302
289
304
325
309
295
306
324
311
299
311
324
299
317
328
306
297
315
325
313
311
317
314
296
298
323
323
299
299
327
324
303
304
326
317
302
308
328
313
300
310
331
318
309
309
319
307
299
314
328
309
303
320
331
308
301
321
329
314
308
328
329
307
312
331
321
302
306
329
324
305
310
333
325
306
307
323
309
316
336
320
306
317
338
322
311
337
357
324
311
335
354
336
323
341
348
326
317
331
333
309
306
328
327
306
310
332
326
309
307
331
341
356
400
435
404
357
333
312
283
291
314
336
320
306
318
336
318
314
334
334
311
303
324
340
321
313
330
336
315
339
343
323
321
344
343
324
327
351
348
332
335
357
357
342
340
359
354
348
358
378
363
352
367
386
369
356
362
368
342
323
330
333
311
301
313
328
301
284
303
312
294
291
314
314
292
291
314
313
294
294
316
309
292
298
319
310
296
300
327
313
289
298
320
291
305
321
304
295
313
323
302
298
317
325
303
298
317
320
301
297
325
325
296
294
318
315
298
304
327
320
302
302
325
317
301
309
327
312
299
316
340
312
290
309
330
313
303
316
329
312
301
318
328
307
298
320
327
308
301
324
327
307
306
328
327
316
307
318
305
310
331
320
306
312
333
320
305
317
338
322
305
316
335
317
308
327
353
336
313
330
347
331
326
344
351
325
318
337
334
310
304
325
325
304
304
328
323
301
304
333
334
322
354
414
417
389
374
361
299
261
294
331
316
303
318
337
317
308
323
331
310
336
344
309
301
328
336
316
313
334
333
318
322
344
336
319
323
348
343
329
333
356
348
335
343
367
357
345
358
387
369
346
362
383
367
356
369
379
354
335
340
343
319
307
322
323
299
294
315
317
296
293
317
323
298
288
312
308
292
299
321
309
292
303
324
297
309
327
308
295
309
326
316
310
309
318
302
298
314
324
307
301
321
323
303
300
322
323
303
301
325
324
308
314
327
316
294
296
324
325
309
311
331
318
303
310
330
316
302
316
335
325
305
306
324
312
305
320
332
312
306
323
330
314
307
327
330
311
309
332
302
304
331
329
307
311
336
329
312
316
337
325
309
317
336
330
315
314
329
318
312
327
340
322
315
333
349
336
328
347
358
341
337
342
337
315
310
336
336
312
307
330
334
315
314
333
319
301
311
347
369
388
409
423
393
348
321
298
277
292
321
339
322
331
342
321
315
342
345
313
307
331
338
323
324
342
342
325
324
348
345
324
325
352
349
334
339
369
358
330
337
363
355
344
358
380
366
359
370
385
368
362
380
393
369
354
368
382
347
322
338
340
313
304
316
315
300
301
321
317
296
297
317
311
298
302
323
303
310
321
304
290
302
324
314
302
308
325
309
299
317
333
312
297
316
328
308
300
325
333
302
294
319
324
303
302
325
323
301
301
325
321
307
313
332
318
297
305
333
322
305
312
330
320
301
304
325
312
302
316
331
311
303
322
333
309
302
324
331
310
305
325
308
308
329
327
306
309
333
329
313
321
356
341
312
318
343
338
323
330
346
330
310
311
330
314
299
313
332
313
301
317
326
303
300
331
366
378
397
415
383
324
297
281
275
282
301
324
326
311
311
333
327
308
313
336
326
311
317
338
326
312
321
342
327
324
340
329
323
345
352
321
315
338
350
333
330
352
361
342
341
365
368
352
355
379
375
353
358
382
373
350
345
359
342
316
313
332
323
293
292
309
297
285
298
318
297
282
297
317
297
286
306
317
295
287
306
314
292
291
313
315
296
296
315
313
293
293
318
306
296
317
310
294
299
321
307
294
308
326
309
295
307
326
308
293
311
329
308
298
311
325
303
298
319
324
304
298
319
318
299
302
323
322
307
313
322
310
295
302
326
319
301
301
324
315
302
311
330
316
303
315
334
316
302
314
332
316
306
321
332
312
303
332
313
308
337
336
303
302
331
337
318
319
343
346
329
328
352
342
323
327
351
335
310
315
334
318
302
314
337
322
308
315
327
314
317
349
391
405
401
400
382
327
274
287
318
311
312
340
333
310
309
331
330
313
317
339
328
311
316
344
334
316
320
341
327
328
352
338
320
330
350
336
328
346
359
339
333
359
371
341
337
363
374
355
353
375
380
359
354
374
372
348
343
356
340
314
312
332
320
297
299
321
306
292
301
320
304
292
305
330
305
285
298
319
304
293
309
321
303
294
313
321
302
298
315
319
300
299
318
296
298
324
318
299
302
326
326
297
298
324
315
297
305
326
313
300
308
326
311
299
314
328
309
298
315
331
312
303
318
326
306
300
321
336
310
295
318
321
302
305
327
323
307
308
330
324
305
309
330
319
304
314
334
319
304
312
329
313
308
321
336
321
302
328
312
309
325
331
313
307
328
331
309
307
333
335
313
310
333
334
318
321
347
344
328
333
367
345
318
324
347
331
311
317
337
316
303
318
335
317
307
317
326
310
308
338
377
394
407
419
408
345
289
282
303
304
310
331
328
309
310
333
327
309
312
336
327
315
337
328
314
320
339
326
316
332
354
326
311
331
350
330
324
340
350
333
331
352
361
345
346
370
371
351
350
377
378
360
361
384
372
349
355
360
340
318
316
332
314
293
301
322
306
290
299
318
298
286
300
316
298
293
309
318
298
288
307
317
300
302
311
292
292
312
312
297
301
323
317
296
298
320
315
300
306
326
313
297
304
324
311
300
311
328
311
308
319
324
301
293
314
327
308
299
315
324
306
299
317
325
308
303
322
320
299
304
328
324
303
306
329
322
303
309
337
318
298
309
333
315
300
312
332
315
303
335
316
305
320
330
311
307
327
336
316
306
326
336
319
307
323
326
306
306
331
335
315
320
345
337
319
325
348
346
330
333
351
335
319
325
339
319
304
324
334
309
301
319
332
308
297
320
344
340
362
419
437
393
357
348
307
276
295
335
335
306
308
330
326
314
336
326
311
316
334
326
315
325
342
328
318
328
346
330
325
343
346
322
316
339
357
336
330
348
359
343
345
367
372
355
356
378
384
369
359
380
378
360
357
375
364
340
334
347
331
309
310
327
311
297
306
327
317
297
299
314
299
292
311
328
306
294
311
304
296
318
324
304
300
318
319
306
304
317
315
298
301
323
316
299
306
327
317
302
307
326
312
298
310
330
321
304
306
322
306
300
318
329
312
302
316
321
302
301
322
324
304
302
324
332
314
299
318
318
304
308
328
317
302
307
331
320
302
309
333
321
305
344
316
296
311
334
320
303
315
330
313
307
324
337
319
313
335
342
325
324
347
356
328
318
344
344
320
318
335
326
310
310
332
321
304
311
334
321
304
308
327
327
340
381
431
426
383
352
333
273
252
295
329
314
307
327
334
312
306
331
336
316
315
339
334
312
337
334
316
321
345
344
321
319
342
334
323
337
357
342
331
342
358
343
338
355
373
360
354
371
383
366
361
378
386
365
361
373
368
341
333
353
339
305
302
322
319
296
297
321
310
291
295
315
302
289
298
318
307
293
298
320
306
302
306
314
297
289
305
299
294
313
320
301
299
321
322
300
298
320
319
301
302
320
315
296
302
321
314
310
309
317
308
296
308
326
310
296
309
328
311
299
310
326
308
300
317
328
309
302
317
323
304
301
324
336
313
295
314
323
308
306
326
322
304
310
332
325
310
317
339
330
315
348
336
320
323
335
317
303
313
339
320
299
310
327
313
301
320
327
304
302
335
364
373
395
410
388
344
311
289
285
291
310
330
323
313
320
343
321
302
312
335
325
313
324
340
322
313
331
344
327
319
332
343
323
319
340
350
329
327
347
351
332
341
358
355
342
369
368
352
354
380
377
358
358
380
369
349
347
362
342
318
318
331
309
295
315
324
296
285
302
316
297
291
308
318
299
291
311
319
300
295
315
318
298
296
318
318
297
298
322
316
302
307
319
308
294
304
325
311
296
305
328
313
298
309
326
312
302
312
309
301
316
326
308
304
330
325
298
297
318
321
303
300
323
326
307
305
325
320
305
306
328
321
309
314
332
322
306
311
329
319
315
315
324
311
305
319
333
314
305
320
334
314
308
325
333
313
306
330
336
312
310
335
338
317
311
339
349
324
315
338
336
323
350
334
309
312
335
320
306
314
332
321
308
317
330
310
302
315
334
339
358
402
427
394
363
352
311
268
287
326
329
311
310
331
328
311
314
335
328
312
315
336
332
317
313
332
326
313
323
343
327
315
328
350
333
322
338
350
332
330
348
357
337
335
355
368
346
372
383
371
358
370
371
355
355
371
359
332
326
340
326
305
311
325
309
293
303
321
305
290
307
326
295
282
299
317
303
290
309
321
299
294
316
322
301
294
314
319
299
294
317
316
298
298
330
325
296
296
318
312
300
308
330
318
299
305
328
313
300
315
312
298
314
330
311
302
317
331
320
299
310
322
308
302
322
328
307
302
327
328
308
309
329
324
305
308
331
324
302
306
331
327
313
310
328
317
305
316
335
321
306
317
337
318
306
321
335
316
307
330
338
314
307
338
339
305
303
330
332
312
309
332
331
314
340
335
319
327
345
333
321
334
355
341
323
339
349
318
302
316
333
316
308
325
338
317
307
325
334
311
307
343
377
392
410
423
403
350
305
295
309
317
315
325
319
307
314
336
326
307
314
335
327
316
321
336
324
312
325
342
323
311
329
345
329
320
335
346
329
339
348
338
334
353
356
342
342
365
370
356
359
380
374
358
363
384
374
351
352
367
344
325
329
330
309
295
303
320
304
289
305
322
305
293
310
320
298
290
313
321
299
294
322
318
290
294
319
319
299
299
322
318
301
302
325
317
300
304
325
314
296
310
313
293
308
330
313
303
314
329
309
301
314
324
306
305
324
326
313
309
316
321
307
306
325
324
305
304
325
321
300
306
333
327
308
309
335
332
306
307
328
318
305
311
329
314
306
322
336
315
301
319
347
318
300
321
332
311
306
326
333
310
307
329
332
313
334
330
316
324
336
326
311
318
340
334
321
327
347
336
324
337
357
338
321
334
352
319
303
320
331
314
310
329
335
310
305
324
331
324
341
391
425
419
397
370
332
274
266
316
327
310
315
339
330
316
320
340
329
310
320
342
332
322
324
340
325
314
326
348
322
336
345
331
326
346
354
335
334
352
357
340
350
371
360
342
349
377
376
358
361
381
375
360
365
386
370
344
344
353
331
310
314
334
322
293
302
314
295
289
308
321
301
290
310
319
301
294
312
318
298
292
314
321
306
294
311
313
298
303
323
314
296
300
315
300
309
326
310
297
308
326
310
299
312
327
308
298
313
331
307
296
314
321
303
300
321
322
303
302
325
325
304
304
324
318
297
306
332
324
302
307
331
321
304
312
340
321
293
306
331
317
303
313
331
315
306
320
334
319
311
326
335
315
314
334
341
322
340
354
332
316
331
328
308
309
328
318
303
308
331
325
305
310
333
319
302
317
350
360
377
409
415
378
328
295
277
266
287
321
334
314
307
327
335
314
310
332
334
315
314
334
331
312
317
342
339
320
321
344
345
326
318
339
334
322
335
354
339
325
339
362
341
359
377
359
349
367
382
365
358
377
382
357
345
361
356
326
317
332
329
309
294
309
307
290
292
316
309
290
293
316
305
287
297
322
306
289
297
319
307
293
305
321
301
300
308
314
298
293
311
317
299
297
315
319
302
299
320
318
300
299
320
321
302
303
313
298
305
323
314
307
314
323
308
296
307
327
313
301
311
324
306
301
319
330
308
299
321
333
310
301
321
329
309
302
325
335
317
299
317
325
311
308
328
321
305
310
333
324
308
313
334
321
305
316
336
319
307
320
336
316
311
326
339
329
324
327
332
315
341
349
325
317
333
335
311
305
321
326
312
310
330
326
307
307
327
319
307
324
370
386
395
402
414
363
306
274
295
302
301
317
340
319
307
321
335
314
311
328
335
316
311
330
333
313
312
333
340
329
319
337
332
315
320
346
342
329
334
355
343
329
340
363
338
354
375
362
350
364
383
367
361
380
378
350
341
355
357
329
314
328
330
306
299
317
316
296
298
318
314
292
294
324
322
293
293
318
309
295
303
321
306
295
306
323
308
298
310
326
309
300
316
326
306
299
315
324
306
301
320
331
311
296
318
323
304
305
318
300
304
328
318
302
307
327
316
301
307
329
320
307
316
331
321
312
311
327
314
302
319
333
315
308
322
329
310
307
329
334
312
307
329
331
309
308
331
327
313
324
333
319
302
308
335
325
310
315
333
321
308
316
335
320
308
320
338
322
309
323
337
317
327
333
315
308
327
338
322
317
338
344
329
330
347
340
320
316
332
323
303
309
334
331
319
313
328
316
300
308
331
324
329
373
427
418
390
375
360
298
270
305
332
314
310
326
332
311
311
340
331
308
308
331
333
314
314
335
330
311
318
340
334
318
323
345
320
329
350
340
326
336
354
342
341
346
359
348
340
361
377
360
352
370
384
361
356
371
370
342
330
344
338
311
306
322
315
302
304
311
299
284
293
316
306
288
298
317
300
287
298
315
304
293
304
319
306
300
317
317
293
286
305
319
301
296
312
318
298
299
322
302
299
320
319
301
300
322
319
299
308
340
318
291
299
326
316
303
312
330
313
299
311
331
313
302
313
327
312
305
321
332
312
305
322
334
313
297
319
326
307
302
323
326
308
311
334
325
306
310
331
323
306
309
337
333
304
306
328
315
303
319
338
318
321
338
317
306
323
338
319
310
328
347
321
308
330
337
316
317
344
347
328
329
347
341
322
319
335
327
309
316
344
321
299
309
333
325
311
315
329
318
324
369
421
424
402
386
366
310
273
304
326
311
307
327
334
316
312
334
335
316
316
341
336
315
318
350
314
314
339
333
320
330
350
339
327
335
353
343
331
344
364
345
337
354
371
361
345
360
378
366
359
376
385
367
366
383
379
351
343
357
346
320
315
336
328
311
299
313
309
296
301
322
309
293
302
320
305
295
309
326
309
302
318
319
299
293
314
325
305
298
323
303
302
321
322
304
307
327
323
310
308
319
314
302
307
326
318
303
308
329
318
305
314
331
317
302
310
327
314
310
331
333
306
300
318
333
314
304
322
335
312
306
325
331
310
304
327
331
312
310
335
335
318
326
338
323
309
319
341
335
327
332
344
321
322
340
319
303
314
331
311
303
320
331
313
304
316
328
326
357
404
419
386
360
349
316
257
261
314
329
311
311
332
329
313
317
338
330
314
316
338
328
312
326
353
329
308
321
342
330
322
335
349
333
325
341
351
334
331
354
363
339
339
367
372
354
353
377
361
363
386
379
364
365
370
352
329
324
341
323
303
307
319
304
291
301
319
302
286
299
318
297
287
303
312
295
291
307
314
294
291
311
319
305
292
310
311
291
293
316
314
295
297
320
312
293
298
323
313
296
304
324
308
294
306
334
309
287
300
317
302
296
321
300
295
316
328
305
299
318
321
302
301
322
322
302
300
322
319
308
309
318
311
299
305
327
315
298
307
328
319
305
313
330
317
302
315
333
316
305
320
338
319
311
327
343
336
322
334
335
313
307
326
327
306
306
330
330
308
307
330
324
303
308
328
324
360
416
418
387
368
361
314
266
282
320
315
308
319
337
320
313
329
337
316
308
329
339
320
313
332
338
317
315
339
340
322
323
344
344
334
328
340
336
325
332
355
347
334
344
367
354
343
357
380
364
355
369
385
367
354
368
376
347
328
339
338
311
313
322
295
287
309
313
297
295
313
309
293
296
317
311
295
300
319
309
295
303
325
313
297
309
333
307
288
301
321
304
297
314
328
307
299
316
320
304
299
317
324
306
301
322
325
302
299
323
331
308
296
317
315
299
308
328
317
297
303
327
317
302
310
329
316
304
331
313
302
315
331
315
305
324
341
317
299
316
326
306
305
327
331
307
303
326
328
306
306
334
331
309
310
331
321
305
312
332
321
307
316
336
321
308
320
342
317
303
318
335
316
307
323
336
319
313
328
336
315
309
332
337
315
311
333
332
314
314
336
332
318
342
336
317
322
348
339
321
327
351
348
339
335
345
328
311
321
337
319
306
323
340
321
310
323
333
316
310
325
337
337
367
427
439
398
365
354
308
277
298
330
329
315
316
336
328
311
317
340
328
311
318
338
327
314
323
338
324
317
333
346
327
319
336
327
323
345
352
331
328
352
358
340
338
360
362
346
350
376
372
354
357
383
377
360
360
376
358
337
336
346
323
303
310
325
308
291
302
316
299
289
307
319
298
290
306
316
295
291
313
314
295
296
319
317
295
296
320
316
296
300
323
314
296
301
323
314
296
322
317
305
310
325
308
300
314
328
309
299
314
326
307
300
317
323
301
300
322
327
303
302
327
326
304
303
323
320
300
301
324
317
301
303
326
318
304
310
327
313
302
317
334
315
302
313
329
312
300
315
327
307
299
318
332
310
300
320
328
312
304
323
326
306
326
323
305
307
330
324
305
312
334
322
306
317
338
320
304
318
336
317
304
316
335
317
304
319
335
313
303
324
341
323
315
337
347
324
317
343
350
326
321
338
334
311
305
325
322
304
307
327
319
301
307
326
309
292
312
354
372
400
428
426
374
325
292
294
300
319
331
308
303
322
331
310
303
323
327
311
310
330
331
310
313
335
330
310
312
337
335
319
322
346
335
317
327
351
340
328
341
362
349
336
353
373
360
350
367
383
366
358
376
384
360
352
364
360
335
325
335
328
304
300
318
313
295
296
315
308
290
318
307
288
294
322
310
294
302
319
305
292
305
324
306
294
309
324
306
294
307
319
307
299
315
324
309
303
320
321
298
301
324
323
302
302
323
319
302
306
328
319
303
309
329
315
301
310
331
318
304
312
329
316
304
318
333
315
305
319
334
315
304
322
334
307
328
332
309
303
329
335
316
314
333
330
313
313
333
326
308
314
335
327
310
316
335
322
311
324
342
324
311
324
338
320
312
325
339
319
309
329
338
320
318
340
346
324
321
344
347
332
330
353
355
337
336
350
339
317
320
340
329
314
322
339
324
307
317
321
305
323
356
367
396
439
440
386
342
319
297
289
303
328
336
317
313
332
336
324
321
331
329
311
312
336
336
320
321
343
337
319
324
347
336
322
332
352
339
328
341
358
341
336
352
367
351
346
365
379
362
358
387
394
360
354
383
390
365
356
370
364
338
344
330
304
304
326
314
294
298
320
308
293
303
323
307
295
306
325
309
303
314
318
298
291
310
322
304
295
312
323
303
299
319
323
304
302
323
324
304
304
326
323
302
302
325
323
310
303
318
309
298
309
328
311
296
311
335
318
301
310
329
313
303
319
330
302
326
337
303
293
317
326
307
303
324
328
310
308
329
331
311
314
335
329
312
320
346
339
321
327
350
335
302
301
322
311
301
314
330
314
303
318
331
310
298
311
331
335
359
406
422
384
349
337
301
255
272
328
326
300
305
330
327
311
314
332
326
310
318
328
311
319
341
331
317
328
348
332
319
330
347
333
334
349
350
331
328
351
361
341
338
364
371
354
355
378
378
361
364
388
386
362
357
373
357
329
324
339
324
304
304
319
304
290
297
319
312
292
293
310
296
287
301
311
293
290
308
314
294
288
309
317
298
312
313
297
296
317
314
294
297
320
314
295
297
321
315
295
301
322
318
295
298
319
309
294
303
323
303
294
311
324
304
299
316
326
309
305
323
328
310
311
335
340
317
309
326
325
310
298
313
312
296
301
323
314
298
304
325
311
295
302
327
329
342
384
425
354
335
313
261
261
304
327
308
302
322
333
313
304
324
330
311
317
336
327
308
311
333
329
311
316
340
333
318
322
345
335
320
330
351
337
325
342
364
347
337
351
369
355
356
371
375
355
350
372
383
363
349
360
363
335
322
334
331
306
299
318
315
294
293
311
293
300
328
308
286
295
320
308
291
300
320
305
291
305
328
314
300
311
327
307
297
316
329
310
306
328
325
298
294
316
325
309
307
327
323
305
306
329
324
305
307
330
321
304
308
332
322
318
315
322
310
301
318
337
318
304
317
331
316
312
329
338
319
331
342
326
321
340
346
330
325
338
330
309
311
332
325
307
308
330
326
307
311
333
321
309
312
335
344
362
408
433
393
348
328
304
275
289
318
336
320
309
325
337
320
314
332
336
313
313
334
336
321
323
351
334
308
316
343
338
322
325
349
340
326
330
351
330
341
359
347
342
354
369
357
351
365
380
361
358
384
383
352
342
358
360
331
320
333
329
304
297
320
318
296
297
318
313
293
298
320
310
293
300
322
309
294
306
330
304
287
301
322
305
294
311
326
306
297
313
324
305
296
312
322
304
298
317
319
302
301
319
302
301
321
327
309
300
317
313
298
302
324
314
300
307
324
313
301
310
325
307
293
311
328
308
296
314
328
307
295
314
328
316
300
312
316
300
299
319
319
302
304
326
321
300
302
326
323
309
311
331
325
309
316
336
324
312
324
341
321
311
320
329
307
315
328
311
301
315
326
311
306
308
308
299
311
358
393
409
406
400
364
308
268
290
305
301
313
334
322
303
311
336
322
306
321
348
320
301
314
333
317
309
327
339
323
313
326
341
326
320
339
345
327
325
345
349
331
331
360
370
353
340
358
362
353
361
381
355
363
381
365
343
346
361
334
312
316
329
310
300
308
318
300
291
304
316
300
292
317
325
295
289
311
316
297
295
319
321
300
296
317
317
299
305
326
315
297
302
325
317
304
315
323
304
292
306
331
313
299
308
327
311
303
320
329
308
301
320
330
308
300
328
310
306
323
332
313
300
321
325
306
304
322
320
305
309
328
320
308
313
330
316
305
315
334
318
301
312
333
318
306
323
342
313
297
317
332
312
305
323
329
310
309
327
327
310
311
330
328
315
315
334
325
313
325
338
319
305
314
336
324
313
328
344
328
330
349
335
327
341
353
328
313
332
341
308
299
319
333
313
310
331
336
313
307
321
326
331
365
423
438
402
374
373
314
256
278
330
332
315
318
339
326
310
325
344
324
314
326
346
337
317
322
340
326
322
337
343
324
325
344
347
330
328
350
352
333
336
363
344
353
371
362
349
359
381
373
361
374
391
373
357
372
391
366
341
347
353
328
322
331
325
302
296
314
322
300
294
314
321
302
299
321
319
298
300
331
330
293
292
319
317
300
303
326
317
299
303
325
315
301
309
331
315
303
314
329
311
300
318
330
308
299
328
307
303
321
329
308
301
321
324
304
307
331
321
300
302
325
320
302
306
330
322
305
312
333
320
304
310
329
318
306
321
338
321
321
335
335
314
309
330
349
332
322
332
333
313
310
325
326
308
308
329
328
309
308
328
323
303
304
326
324
324
358
409
413
358
347
296
249
268
319
316
307
334
348
318
304
322
337
319
314
329
336
318
316
334
343
324
318
336
340
323
323
347
343
325
327
351
348
330
335
361
354
339
350
372
361
347
364
393
363
348
368
387
370
358
368
374
347
329
335
338
312
301
316
323
298
290
312
292
288
312
312
293
294
315
309
291
296
320
309
296
309
315
297
287
302
322
309
296
305
321
305
294
311
326
306
296
313
323
303
297
314
322
304
301
318
322
310
297
311
314
297
298
321
318
299
302
323
316
301
306
325
315
300
307
327
312
298
310
328
310
301
328
310
304
319
332
314
308
325
332
317
311
328
336
319
327
346
330
306
303
322
320
303
307
329
319
302
307
327
316
301
308
328
311
300
325
367
379
392
395
387
343
296
274
295
300
302
321
332
310
306
327
330
308
307
332
333
313
311
330
329
314
320
340
333
324
345
332
319
325
346
335
322
332
351
341
328
342
360
346
338
354
369
353
349
371
382
360
350
372
377
349
337
349
340
316
310
326
319
294
295
320
311
290
292
314
309
296
301
320
306
291
300
320
306
292
303
324
309
297
309
323
306
297
315
328
306
297
317
307
301
321
323
301
300
324
323
303
303
326
323
302
306
327
318
302
309
330
317
300
308
329
318
306
314
330
316
303
315
333
316
306
318
331
313
306
323
327
309
305
325
331
310
306
325
325
308
309
330
325
306
309
330
321
305
312
335
322
304
315
338
324
308
335
319
304
319
335
317
306
320
338
317
307
325
338
318
311
330
342
321
312
333
339
321
321
344
343
323
326
351
340
316
313
333
325
311
316
334
317
304
316
336
321
306
311
330
330
348
400
437
407
375
365
333
275
280
318
330
314
314
333
331
311
310
336
334
314
334
328
313
318
337
328
313
321
342
332
320
328
345
331
318
330
352
337
326
342
356
341
334
351
362
346
343
364
374
356
352
373
379
359
353
372
367
338
332
349
337
309
304
323
315
296
298
319
306
291
301
321
304
289
303
322
304
292
306
320
302
293
308
299
291
313
321
298
290
312
322
303
297
318
322
304
301
318
315
301
304
322
313
298
306
327
316
300
308
328
314
300
310
330
314
302
313
327
308
302
317
327
312
305
319
326
309
305
323
329
309
304
323
328
307
304
326
326
308
310
332
326
307
310
333
324
308
333
322
309
316
334
319
306
319
333
316
309
322
334
314
307
325
334
312
305
325
335
315
309
326
325
307
310
333
332
311
312
333
327
310
321
347
336
319
325
346
336
323
331
348
327
308
317
335
321
310
324
336
317
309
325
333
309
300
326
350
356
389
432
427
350
329
292
282
303
335
333
313
315
336
325
308
314
338
329
314
321
339
324
316
327
344
326
314
326
343
329
320
333
346
331
326
342
352
337
332
351
359
345
344
361
365
350
354
378
375
357
357
381
375
359
361
378
356
331
333
344
330
315
309
317
300
290
303
299
290
305
317
293
286
311
323
298
291
312
322
303
297
316
317
298
297
317
315
304
311
318
308
294
303
324
314
297
304
324
312
300
310
329
313
298
309
330
315
306
316
326
310
305
321
336
312
297
319
326
303
300
320
325
311
309
330
326
307
309
331
324
305
334
324
305
308
333
334
315
310
327
317
309
322
337
318
307
323
336
318
310
327
339
320
317
338
344
326
325
361
363
326
318
339
334
311
310
333
329
313
314
333
324
311
323
342
323
305
314
351
373
384
412
428
388
343
322
297
270
288
328
343
319
313
333
345
320
341
344
324
329
348
335
316
323
348
342
323
329
353
349
333
337
358
346
328
338
364
354
336
355
382
354
338
359
381
366
361
379
392
371
364
381
391
369
359
370
365
340
330
345
347
315
299
316
317
302
301
320
310
294
299
324
313
296
301
322
310
297
309
311
289
305
324
308
298
315
330
311
302
318
329
308
301
322
327
303
303
333
334
299
296
321
324
308
308
329
323
304
307
328
320
306
311
331
317
304
312
332
316
308
332
339
312
305
324
340
322
313
331
344
325
321
334
334
307
303
323
327
306
302
322
324
311
323
310
292
297
324
332
342
378
418
398
360
339
324
269
251
290
330
317
300
318
335
326
323
325
327
309
307
328
335
313
311
336
341
319
318
338
339
319
321
346
341
326
330
351
345
331
338
365
355
335
345
368
356
349
365
383
364
351
368
388
367
350
358
364
322
329
325
303
303
325
318
284
283
307
309
288
288
309
308
288
291
315
306
291
295
315
307
291
297
323
310
293
310
324
302
289
300
318
304
297
310
321
304
301
317
322
303
298
316
322
299
295
319
323
304
301
320
321
313
315
324
316
301
306
332
326
311
320
329
311
312
327
309
298
312
327
310
297
309
327
309
297
309
319
301
293
321
352
362
386
412
396
344
310
292
270
269
294
328
325
298
298
323
318
301
308
336
326
306
315
338
328
314
321
339
324
311
324
341
322
316
334
345
327
324
344
350
332
333
353
358
341
372
364
341
342
367
372
358
360
379
365
341
337
350
332
312
315
330
311
295
300
316
303
292
303
318
299
286
307
322
296
285
303
317
298
292
311
316
300
297
317
317
296
297
319
318
297
299
322
318
301
304
325
319
303
306
327
314
299
304
321
319
311
309
318
296
313
327
309
298
317
331
310
300
317
325
311
306
323
326
307
304
326
326
311
313
332
330
316
320
345
346
319
314
329
316
300
308
326
313
298
312
332
312
298
316
332
312
299
315
337
337
360
410
421
379
344
332
296
276
295
327
333
316
304
321
327
311
313
326
308
313
336
328
313
321
339
327
318
327
341
327
321
336
349
331
325
338
349
330
325
346
363
349
343
356
361
347
347
373
377
357
356
376
373
350
348
367
353
327
323
336
321
302
305
322
312
300
309
323
305
290
306
325
305
292
311
333
304
288
304
319
303
317
324
304
297
318
320
302
302
323
318
297
300
323
317
300
308
327
315
303
311
330
316
302
316
342
314
295
308
328
311
302
316
329
309
302
319
331
312
304
319
326
308
306
329
330
307
301
323
323
309
306
327
327
320
310
320
317
305
313
331
320
305
315
334
304
316
335
317
308
324
339
318
307
322
334
318
312
328
334
311
309
329
332
312
314
336
334
311
312
332
329
321
324
332
320
308
319
339
325
309
316
340
327
310
320
338
325
316
328
342
327
320
336
347
329
323
346
361
337
316
328
333
315
308
329
331
313
310
324
308
310
327
321
313
334
392
418
410
403
393
343
287
286
321
317
307
319
335
315
313
334
331
307
305
327
336
314
305
326
335
315
311
335
336
316
316
339
336
319
321
344
340
325
333
355
342
327
336
362
353
340
364
377
352
342
358
379
365
355
367
380
358
348
354
327
314
325
327
305
298
312
316
297
295
315
314
305
297
308
303
289
297
320
311
295
298
319
311
295
302
326
314
298
304
321
307
300
313
325
307
298
314
326
307
299
320
326
306
302
332
332
297
295
323
323
303
302
323
318
304
308
328
319
301
301
325
305
312
333
316
301
312
331
321
312
315
325
306
299
316
330
311
307
326
333
311
303
323
329
308
309
328
329
312
312
329
326
307
313
335
325
317
316
325
313
302
315
337
322
307
315
333
319
311
325
337
317
305
320
335
318
310
326
333
312
309
331
336
318
319
339
324
326
346
345
328
327
344
340
317
314
332
322
307
312
333
327
312
308
323
308
296
313
344
348
372
420
436
392
347
324
292
277
292
323
334
310
305
325
324
308
309
331
327
307
309
331
325
305
311
336
329
313
319
338
326
314
324
347
340
331
327
339
327
343
361
344
336
355
371
356
348
366
379
362
360
379
381
359
352
371
363
333
325
341
332
306
313
331
309
287
292
315
309
294
305
322
308
295
305
324
306
298
310
324
308
298
312
322
303
300
320
328
306
301
319
324
306
305
330
331
303
299
321
321
306
307
327
306
310
332
323
307
314
333
319
306
317
335
317
304
318
336
320
309
321
333
320
321
327
328
310
308
327
334
315
312
330
334
317
316
335
330
313
316
340
336
318
322
343
334
319
326
345
331
316
322
346
333
321
331
345
327
322
347
352
325
314
333
343
322
318
346
330
329
352
357
337
335
357
359
342
343
364
357
336
331
343
333
319
323
350
346
315
317
339
323
310
320
344
344
361
407
444
414
378
362
330
272
277
327
345
320
314
337
342
323
320
339
340
324
325
343
338
318
332
352
337
320
325
348
342
328
336
356
343
343
360
345
335
347
366
354
348
364
377
361
357
379
390
367
363
387
394
377
366
369
364
342
335
345
337
314
309
328
320
300
302
323
310
294
299
320
310
296
306
324
306
294
306
323
307
296
309
323
304
295
310
318
302
298
318
322
301
297
318
321
302
302
321
311
305
314
309
295
301
322
312
297
305
327
314
301
309
328
312
300
310
325
312
304
315
325
303
294
316
327
307
303
321
324
305
303
321
321
300
302
324
324
305
303
325
320
302
306
330
320
304
307
328
317
303
310
330
315
304
316
333
320
315
331
354
337
314
344
327
320
331
338
316
305
322
324
302
298
323
324
301
301
325
318
298
306
346
371
389
407
407
362
314
280
276
284
294
311
330
316
303
315
331
316
314
330
328
306
301
318
330
314
312
329
332
314
313
334
335
319
317
336
335
319
321
343
339
326
332
353
346
348
366
352
343
357
378
363
350
362
376
358
340
348
354
324
309
320
324
297
289
312
314
288
283
313
320
287
282
302
305
286
288
312
306
283
287
313
307
288
295
318
305
288
298
318
305
292
302
320
301
296
319
320
289
286
312
323
299
294
311
318
300
297
317
296
293
319
321
303
302
322
316
296
301
326
316
297
302
323
312
308
316
324
306
297
313
331
313
300
315
332
313
302
318
330
307
300
323
331
311
305
325
331
310
311
331
328
309
311
333
327
309
310
328
319
311
323
333
316
305
315
336
326
317
330
351
337
321
349
336
325
333
342
320
311
325
331
308
303
325
330
315
307
314
311
301
324
375
406
402
393
391
352
291
264
301
313
302
312
333
324
309
317
334
319
309
322
339
317
303
320
339
321
321
334
332
313
314
336
343
323
321
344
346
325
326
350
349
332
340
365
362
350
377
372
356
365
384
373
356
364
380
364
350
353
365
332
306
317
328
308
297
314
324
301
292
309
314
296
296
316
317
295
297
322
318
297
303
333
319
288
294
320
314
297
307
326
314
299
303
326
317
303
312
332
312
300
314
331
313
303
317
327
306
300
323
312
297
318
324
305
301
323
324
305
304
325
325
306
309
333
322
300
310
338
326
307
312
330
319
306
314
332
320
309
324
336
317
309
329
335
308
299
318
330
313
307
323
328
312
308
330
334
313
312
333
328
308
308
334
331
310
313
347
333
302
307
333
327
314
348
331
318
335
358
340
325
337
352
335
324
333
334
313
312
330
331
310
314
328
323
302
301
323
331
331
364
424
428
390
365
356
300
266
293
333
326
314
323
341
322
310
319
335
318
317
338
337
316
309
325
338
323
317
336
342
322
319
341
347
328
324
345
346
331
362
360
340
343
366
362
349
361
389
379
349
355
381
370
356
364
381
357
336
339
348
323
306
314
321
304
301
314
319
300
292
311
317
295
300
322
313
294
293
315
313
294
297
323
316
298
301
321
309
296
304
325
309
298
309
325
309
299
310
335
316
294
307
305
297
314
324
303
296
317
325
306
302
323
323
301
302
325
322
301
303
324
318
300
304
329
330
302
297
323
315
302
311
331
312
300
315
332
312
297
315
331
314
304
320
328
309
307
327
332
308
302
327
339
307
297
320
325
310
311
330
323
308
313
336
327
308
335
323
307
314
333
321
310
324
340
319
309
324
345
330
311
328
347
334
325
341
350
333
327
347
349
322
311
329
325
307
310
335
329
311
310
329
320
310
322
352
365
388
418
421
379
334
300
293
295
304
321
335
318
310
325
336
318
310
328
336
318
324
333
328
309
335
342
319
317
341
344
322
322
349
346
328
331
353
347
337
352
363
344
338
356
378
363
354
370
386
368
360
376
389
369
356
365
365
338
327
347
342
304
295
317
319
299
298
320
314
295
294
315
312
298
302
322
310
294
304
331
306
287
299
323
314
296
304
307
299
311
324
310
301
316
326
305
299
320
334
319
301
313
319
301
304
326
319
298
300
331
328
306
308
331
320
303
311
330
315
307
318
326
309
300
315
336
319
306
318
333
315
305
320
328
308
303
322
333
322
313
317
323
311
311
327
327
309
307
329
326
309
331
326
310
313
334
330
309
312
329
319
307
325
349
332
317
331
349
337
330
342
351
325
318
339
340
301
295
318
327
309
306
322
321
307
307
323
322
320
356
415
428
405
371
351
303
255
271
318
320
308
319
338
322
311
332
341
315
308
325
338
319
312
329
340
320
338
342
324
320
343
347
325
325
349
348
340
334
351
351
338
346
369
361
349
363
384
373
362
371
391
376
361
370
384
368
345
337
343
322
307
317
326
306
300
317
320
298
290
308
316
299
298
317
319
297
290
313
309
294
300
322
313
294
302
323
311
297
308
311
295
307
327
313
300
310
327
311
308
322
319
296
295
315
322
304
302
319
321
303
299
319
323
308
306
325
320
301
306
326
316
298
305
329
317
299
306
333
326
302
310
328
311
301
316
330
311
304
320
330
312
306
320
326
311
308
331
338
321
316
338
341
324
346
351
336
322
334
324
303
310
334
321
302
309
331
317
302
311
329
314
300
323
361
373
391
402
395
345
302
278
283
282
293
318
328
312
308
326
331
312
312
335
333
312
312
334
329
312
315
339
334
318
322
344
334
322
327
347
334
324
336
357
350
338
338
352
343
363
375
359
353
374
386
363
356
375
378
353
346
358
349
318
310
330
321
296
294
319
313
297
289
308
297
284
296
319
305
289
298
316
300
289
303
321
307
293
305
318
300
294
312
320
301
297
317
318
298
298
327
319
296
296
319
318
300
299
320
314
301
307
315
299
305
324
311
301
313
328
312
300
311
327
309
299
315
329
309
300
316
327
309
301
321
325
305
306
326
325
306
309
339
333
301
300
323
322
304
310
331
320
307
312
333
320
303
312
336
320
306
317
333
315
304
321
339
324
318
334
344
330
337
343
340
320
342
341
316
304
322
327
310
310
330
323
306
307
327
314
300
320
362
380
401
407
403
363
315
273
287
299
302
315
331
314
305
316
332
314
304
323
335
316
310
329
332
312
311
336
337
314
315
337
334
317
322
355
341
314
320
347
342
329
339
359
348
337
352
376
350
365
381
361
354
371
384
358
344
355
355
328
325
335
324
302
299
319
316
295
296
319
314
294
294
318
315
293
297
325
316
297
305
324
309
295
306
324
317
304
304
317
300
296
316
329
307
297
315
330
311
300
318
327
307
303
327
329
304
302
325
326
303
302
332
302
297
323
317
299
307
330
318
305
311
330
312
298
311
333
317
304
317
327
307
301
318
334
312
311
326
319
299
302
323
325
307
306
326
321
301
303
332
330
309
309
326
319
307
317
333
320
305
313
339
322
302
313
329
313
304
321
339
321
309
326
337
315
324
335
319
312
332
337
322
326
351
350
334
336
343
337
324
323
340
331
313
316
331
315
302
315
338
320
303
310
327
312
312
347
395
414
407
401
388
333
280
296
317
304
303
324
329
309
307
331
331
311
311
332
328
309
312
336
325
311
318
339
327
312
322
345
322
338
360
330
312
331
354
340
331
348
365
348
342
364
377
354
350
374
383
363
359
377
374
348
341
357
349
320
311
332
332
299
292
312
308
294
301
321
306
291
299
321
306
294
307
324
305
294
309
323
306
301
316
324
309
307
312
315
300
301
320
322
305
302
325
306
305
325
318
304
309
335
324
302
307
332
322
306
309
328
322
305
317
343
318
298
311
329
311
307
325
333
314
306
323
330
310
306
327
330
312
308
327
329
310
311
331
324
316
318
330
323
306
310
335
324
310
318
334
320
309
321
336
319
307
323
341
325
321
334
318
310
327
338
325
317
324
326
310
307
330
331
311
313
335
334
314
313
335
329
313
322
347
336
320
327
352
351
335
329
344
331
318
330
347
324
303
315
330
311
309
323
327
311
307
322
327
317
331
390
428
410
394
387
353
289
270
312
319
308
318
340
309
316
335
322
304
315
335
322
312
331
345
318
306
322
339
326
317
336
346
326
321
341
348
330
326
348
354
338
338
360
365
355
352
366
364
352
362
388
379
360
364
384
369
345
344
355
336
316
320
332
313
306
311
312
298
295
310
319
296
294
316
323
300
293
319
301
302
320
321
308
296
314
312
298
301
322
316
299
303
322
312
296
306
332
316
301
314
337
312
292
310
326
310
300
316
328
309
302
317
323
306
299
323
338
309
296
318
323
306
304
323
320
305
310
327
317
306
312
332
325
315
314
324
311
301
313
335
320
319
337
317
303
318
333
316
310
328
340
322
304
318
325
312
314
332
333
313
309
329
326
310
315
334
330
314
317
337
330
326
332
341
333
325
334
354
338
325
336
350
331
314
323
336
317
307
322
338
317
297
315
325
309
304
324
339
347
377
427
425
382
347
329
260
292
334
332
307
307
333
328
312
315
334
325
317
328
340
323
316
331
344
327
319
333
345
330
333
344
342
325
328
350
352
336
339
361
362
345
347
372
372
354
355
383
381
365
368
392
393
368
360
373
355
334
334
345
320
301
315
328
304
288
303
319
306
295
320
297
292
313
326
295
284
308
316
297
296
314
309
294
299
318
313
298
306
328
315
295
303
326
314
298
308
329
316
293
304
324
308
294
309
325
306
302
319
325
302
299
320
323
300
297
321
321
302
307
335
317
293
300
324
319
300
303
328
320
303
309
327
312
314
335
316
297
311
332
315
301
313
331
325
316
321
331
314
310
335
340
320
321
342
343
322
319
331
326
308
307
325
321
305
306
328
323
304
306
328
324
311
339
394
409
391
379
360
310
261
268
311
313
305
321
334
315
308
323
330
317
316
333
337
316
315
344
305
315
344
339
317
322
346
336
318
326
353
346
327
334
356
344
331
348
373
359
348
363
379
363
358
374
387
377
362
367
371
347
331
345
342
316
306
321
315
291
295
314
310
291
295
315
304
288
295
316
306
288
301
326
299
282
297
320
304
289
305
323
305
293
323
306
299
315
321
302
295
317
320
303
303
323
323
301
299
321
328
307
295
316
317
300
301
321
311
298
305
327
313
297
306
325
310
294
302
322
305
293
309
323
303
294
313
333
303
287
306
316
301
300
318
319
300
298
320
319
303
308
330
321
304
313
335
323
318
342
339
318
320
335
316
304
315
331
314
297
307
321
300
297
310
307
288
296
330
355
360
390
432
422
373
345
351
318
289
297
337
353
329
326
353
340
326
331
346
348
335
332
356
353
329
338
354
330
312
325
339
335
328
343
360
346
358
349
361
336
309
325
305
286
337
363
360
370
363
376
358
355
363
333
315
335
366
360
321