382
396
399
372
371
396
378
367
357
364
369
352
348
340
334
337
344
340
331
321
324
330
329
320
319
316
314
315
309
322
312
293
289
311
314
299
298
301
297
291
291
288
281
266
257
247
237
238
251
261
248
238
242
255
254
250
259
255
259
262
265
258
254
254
259
265
248
246
257
256
257
254
258
255
254
257
258
255
246
257
263
264
250
262
273
260
258
267
267
263
262
284
287
273
266
276
282
277
270
286
315
285
278
289
285
271
290
299
277
243
277
278
268
250
228
234
217
202
234
241
207
206
207
207
210
209
212
228
215
202
214
240
281
290
275
246
211
169
188
235
241
221
237
246
247
239
249
272
280
262
267
288
296
297
305
312
315
315
299
298
318
329
308
282
283
325
361
325
298
293
302
308
309
311
310
277
209
220
294
397
466
486
483
466
455
418
416
407
369
332
330
250
163
228
282
317
336
324
266
250
284
310
317
270
278
350
360
315
243
220
241
269
293
289
282
295
312
311
299
299
294
305
333
350
377
412
435
449
462
465
474
500
518
504
446
405
429
463
507
533
536
513
502
510
502
473
474
531
589
616
631
638
640
641
641
642
643
643
644
643
643
643
643
643
642
643
642
643
643
643
643
642
641
641
638
624
569
528
536
555
564
570
582
593
598
595
590
584
579
578
582
586
581
573
575
583
580
573
572
570
561
553
549
546
540
535
536
535
529
527
530
530
527
526
531
531
529
530
534
534
528
526
524
517
506
498
490
475
462
452
445
434
424
422
419
411
407
408
409
404
399
400
400
396
394
395
393
388
385
384
383
377
373
374
371
365
361
361
357
349
347
347
345
339
337
339
335
330
329
330
327
323
323
326
323
319
318
320
316
313
315
317
316
312
309
303
294
288
289
287
283
280
283
282
277
276
281
286
271
262
267
287
311
331
326
302
275
247
213
207
235
256
261
258
254
256
258
254
251
253
255
253
250
252
256
259
250
244
247
247
249
253
254
251
251
256
257
255
256
261
262
260
262
266
267
266
268
272
269
269
271
275
272
268
268
266
258
249
250
242
224
218
219
219
214
211
211
212
211
210
215
217
213
213
217
219
218
218
227
219
210
212
219
220
218
217
222
221
221
221
223
221
219
220
226
232
225
218
223
225
228
231
234
233
231
235
239
239
243
245
244
236
229
231
233
231
232
241
237
225
227
235
237
235
238
241
243
255
281
309
304
283
266
244
208
193
222
253
258
255
247
252
255
255
258
262
260
259
264
267
265
266
271
273
272
271
274
277
276
279
285
289
287
279
282
289
292
298
300
300
304
310
311
310
313
317
317
316
317
317
311
303
299
295
286
278
277
276
272
269
274
280
267
262
269
274
273
272
276
277
276
278
281
282
279
281
284
284
282
284
288
287
285
286
290
288
285
288
291
290
289
293
297
296
295
298
303
301
298
302
306
307
306
303
296
294
297
297
294
296
299
300
297
297
301
301
300
300
306
320
340
362
360
339
319
298
265
254
281
306
312
310
309
313
316
313
312
315
318
316
316
319
321
319
320
324
326
324
324
328
331
329
329
334
334
333
336
341
341
339
342
348
349
348
351
355
354
356
360
358
355
354
352
344
334
330
326
319
313
313
311
307
305
308
310
307
306
309
311
309
309
312
313
310
311
316
316
312
312
315
316
313
314
318
316
313
314
318
316
313
315
318
317
315
318
322
321
319
321
326
323
320
324
329
329
330
331
327
318
317
316
314
314
318
318
316
316
319
318
316
318
324
334
349
375
388
367
347
330
298
279
300
321
328
327
325
327
329
327
325
329
331
329
327
331
332
330
329
333
336
334
334
338
341
338
340
343
343
342
345
350
349
348
352
357
358
357
360
364
364
364
367
370
365
365
363
354
346
341
337
329
322
320
320
317
315
316
317
313
314
318
320
317
317
320
322
319
317
320
320
317
318
321
321
317
318
322
321
318
319
322
320
319
321
324
321
319
322
324
323
323
326
327
327
327
329
329
328
328
336
338
331
325
323
321
316
316
320
319
319
322
321
318
319
322
322
323
339
365
385
374
356
342
315
279
288
318
327
326
328
330
328
325
329
332
329
328
332
334
331
331
334
335
333
335
338
339
338
339
343
343
341
343
347
348
346
348
354
355
354
357
361
361
360
362
366
365
362
365
365
359
348
342
332
325
324
322
316
312
314
314
310
309
314
314
312
311
314
315
312
312
315
314
312
312
316
315
312
314
318
316
312
314
317
315
313
315
317
315
314
318
321
318
317
323
326
321
320
324
329
328
326
325
322
315
314
315
316
312
313
318
316
313
314
317
313
317
327
344
365
373
358
341
319
287
279
303
318
323
326
323
319
323
327
325
322
327
329
326
325
328
330
328
329
333
335
332
333
337
338
336
339
342
343
341
344
349
350
347
350
356
357
355
358
362
362
360
361
364
361
357
354
349
339
330
326
324
318
314
313
309
308
311
312
310
309
313
314
311
312
316
316
312
312
316
315
311
312
315
314
312
313
316
314
311
313
316
314
312
313
317
314
312
314
318
315
314
319
322
318
319
323
325
322
322
327
332
332
328
326
322
316
315
317
316
313
315
319
318
315
316
319
318
322
340
362
388
386
370
345
312
279
290
314
323
327
328
325
323
327
329
326
325
330
331
329
329
333
334
331
332
336
337
334
336
340
339
337
339
343
344
343
346
351
350
348
352
357
358
358
361
365
364
362
363
365
360
355
353
348
338
330
329
325
319
315
314
310
310
313
314
311
312
316
315
313
314
316
316
312
313
316
314
312
313
317
316
313
315
317
315
312
313
316
313
312
314
316
313
312
314
316
315
313
316
317
314
313
316
317
314
315
318
318
315
315
318
318
315
316
319
318
314
316
319
318
315
317
320
319
316
321
319
317
319
322
320
319
321
323
320
319
322
325
321
320
322
323
320
320
323
324
322
324
327
327
326
328
332
332
331
334
340
340
333
330
327
323
319
320
325
324
321
322
325
323
320
322
323
324
333
357
391
408
389
364
337
296
274
301
325
327
328
329
329
326
331
331
327
327
332
332
329
331
334
333
332
335
338
337
336
338
342
340
340
343
347
345
345
348
352
350
351
355
359
358
359
363
365
363
363
366
367
364
361
361
355
347
340
336
330
321
318
318
316
312
312
315
312
309
311
315
313
310
312
315
314
312
314
314
313
316
319
316
315
318
319
317
317
320
320
318
316
319
319
318
317
320
321
317
317
321
321
317
319
324
322
319
321
323
322
320
321
324
322
320
322
324
322
321
323
326
323
322
324
326
323
321
325
326
323
323
326
326
323
322
326
327
324
325
331
332
328
335
335
331
333
338
340
340
340
339
331
324
323
324
323
321
323
327
324
322
324
327
324
322
329
344
366
396
409
387
355
325
290
283
308
326
332
332
327
328
332
332
328
329
333
332
330
332
335
334
332
335
338
337
335
337
341
339
339
342
346
344
344
348
351
352
357
360
359
359
365
368
367
367
370
371
368
368
370
365
357
351
347
338
329
325
324
319
313
313
316
314
310
312
315
313
311
314
317
315
313
315
317
314
314
317
318
316
314
317
318
316
316
319
320
316
317
319
319
315
315
319
318
315
317
320
319
316
318
318
316
318
321
320
317
319
322
320
318
321
322
319
318
321
322
319
319
322
324
320
319
323
324
320
320
327
329
325
326
331
333
331
331
336
337
338
336
335
329
323
323
325
322
322
323
326
323
320
323
327
326
321
324
340
362
388
401
380
347
321
292
277
299
333
333
329
329
333
337
340
330
328
329
328
331
335
336
334
336
341
340
337
340
343
342
341
345
348
347
346
350
353
352
352
353
358
361
361
364
369
368
367
371
372
369
368
369
366
357
350
345
337
328
322
322
318
314
318
320
307
301
306
311
310
308
311
315
312
314
317
314
311
314
316
313
312
315
317
312
311
315
318
322
314
308
311
311
311
315
314
311
312
316
316
312
312
316
314
312
314
318
316
314
315
318
317
315
317
321
320
318
322
326
322
321
325
328
329
330
330
326
317
315
317
318
314
314
317
317
314
315
319
317
316
322
335
356
381
382
356
330
308
279
271
297
320
325
323
321
324
327
325
324
327
330
328
327
330
332
330
329
333
335
332
332
337
338
335
337
342
342
340
341
347
348
347
349
354
356
354
357
362
363
361
364
366
364
360
361
360
351
341
336
331
322
311
310
304
301
302
303
299
299
303
304
301
302
306
305
302
303
306
306
303
303
306
305
302
302
305
305
302
303
306
304
302
304
307
304
301
304
306
304
302
304
307
304
302
305
308
304
303
306
308
304
304
308
308
305
306
309
309
306
307
311
310
308
308
312
308
309
313
312
311
313
315
314
315
318
321
320
321
326
330
325
317
314
313
309
306
310
313
310
309
312
313
310
310
314
315
319
336
365
389
374
350
332
303
269
283
312
321
319
319
322
321
319
321
325
323
321
324
328
325
325
328
331
329
328
331
335
332
332
339
338
337
341
343
341
343
349
351
350
352
357
359
358
360
365
365
363
364
367
364
358
356
353
343
334
329
326
320
314
313
313
310
307
309
311
309
308
311
313
310
309
313
314
311
310
314
315
311
311
314
314
310
311
315
315
312
313
316
316
313
314
317
316
315
318
317
314
316
318
315
313
315
318
315
313
315
319
317
315
318
319
316
316
319
320
317
317
320
320
317
318
321
321
318
319
322
321
317
319
324
323
320
321
325
322
320
323
325
327
327
327
328
329
328
330
334
333
336
342
341
333
327
325
324
319
318
325
325
325
329
328
324
325
328
336
351
378
409
401
371
346
319
285
292
318
331
330
328
328
331
329
327
330
332
330
328
332
333
332
331
333
336
334
334
337
339
337
339
344
344
341
342
348
349
346
348
353
354
354
356
363
363
362
364
368
368
365
367
367
364
358
349
338
330
327
323
317
313
314
313
309
308
310
312
309
309
312
311
309
308
313
313
309
310
313
312
309
311
314
313
310
312
315
313
310
312
314
313
309
311
314
311
309
312
314
311
308
311
313
311
311
314
314
312
310
315
316
313
312
315
316
313
312
315
315
312
316
315
313
314
317
316
314
315
318
317
315
316
319
317
315
316
319
317
315
318
320
318
317
321
322
320
319
321
322
319
319
322
323
321
323
327
326
324
326
331
330
328
331
338
340
335
330
329
324
319
320
323
322
319
321
324
322
319
321
324
323
330
352
405
387
364
339
302
277
300
323
327
326
330
329
326
327
331
331
328
329
333
332
330
331
334
334
331
334
337
337
336
338
341
340
338
341
345
345
344
349
352
351
352
356
360
359
359
364
366
363
363
366
367
363
360
359
353
344
337
332
326
318
314
314
311
306
309
307
304
306
309
308
304
308
310
309
307
308
311
308
307
310
312
310
308
311
312
309
308
312
313
309
308
312
312
309
308
312
312
309
310
314
314
310
311
314
313
310
312
315
314
310
312
315
313
311
313
316
314
311
314
316
314
311
315
318
315
312
316
318
314
318
318
314
315
319
320
315
315
319
320
316
317
320
320
317
319
322
320
318
319
322
321
318
320
323
321
319
324
327
325
322
327
332
330
329
334
339
340
337
335
329
321
319
321
321
319
320
322
323
320
320
324
324
323
333
356
384
404
388
362
334
297
276
323
328
330
331
329
327
330
331
329
328
333
334
331
330
335
336
333
333
337
339
336
337
342
343
340
341
346
346
344
346
351
352
351
354
359
360
360
363
368
367
365
367
370
369
365
365
363
354
345
340
335
326
320
319
317
312
309
312
312
307
307
311
312
309
312
312
309
310
313
313
309
312
315
313
310
312
315
314
312
314
316
315
311
314
317
314
312
314
316
313
311
313
316
313
312
315
316
313
313
317
320
316
315
319
319
315
315
319
319
315
316
319
318
315
317
320
319
317
318
322
320
317
320
321
319
318
321
324
318
320
323
320
319
322
323
320
319
324
325
320
320
324
325
321
320
324
324
322
323
325
325
325
327
330
329
329
335
338
335
333
339
344
339
331
330
328
321
317
321
325
322
320
323
326
323
321
324
329
338
362
395
403
375
346
322
288
277
306
329
331
327
328
329
326
329
332
332
330
332
337
335
331
334
338
338
336
339
343
341
339
343
348
346
345
349
354
353
352
357
360
358
360
369
378
367
361
368
372
370
371
375
373
367
363
360
352
342
337
334
328
321
320
319
316
312
313
317
315
312
316
318
315
317
322
313
309
316
318
316
315
318
319
315
315
318
319
315
315
318
317
314
315
318
316
314
315
318
317
317
324
318
309
309
314
317
315
314
317
319
316
315
318
320
318
317
319
320
318
315
319
320
317
317
320
324
325
316
314
316
314
317
321
320
317
319
322
322
319
322
326
322
326
330
328
326
328
334
339
336
324
318
315
315
318
320
317
316
320
322
317
317
321
323
320
322
342
367
384
381
358
328
301
273
275
303
321
325
327
326
325
327
331
329
326
330
335
332
329
331
335
338
338
331
332
332
334
340
342
340
338
344
346
345
345
353
351
352
359
366
364
357
362
366
365
367
370
369
364
364
363
353
341
335
330
323
317
314
314
309
305
306
308
306
306
313
304
299
301
308
310
307
306
311
311
308
308
313
313
309
309
312
313
308
309
314
319
306
302
308
310
307
308
312
310
308
310
314
310
310
313
311
310
313
315
312
310
313
316
312
311
317
319
316
315
321
322
317
320
326
329
326
324
324
318
316
318
310
307
308
311
315
313
310
312
315
314
310
314
327
347
369
384
367
342
317
289
267
281
309
321
323
319
319
323
324
321
321
325
326
323
323
328
325
326
331
330
328
331
335
336
333
334
338
338
337
340
345
344
343
348
353
354
355
357
362
361
361
365
367
362
360
360
356
345
336
333
326
317
312
312
310
305
304
306
305
301
302
306
305
303
305
307
307
305
307
310
308
306
308
312
308
304
308
311
308
305
311
309
307
310
311
309
308
311
313
309
308
312
312
309
309
312
312
308
308
313
313
309
310
314
314
310
310
314
313
311
312
315
314
311
314
316
314
312
314
317
315
313
317
318
314
313
318
319
317
316
318
319
318
316
320
322
320
322
325
325
324
325
329
329
333
338
334
326
322
322
319
315
318
321
320
317
319
321
318
316
319
323
330
346
375
401
387
362
341
311
280
293
318
326
324
322
325
327
323
324
328
328
325
326
329
329
326
329
334
332
330
333
336
335
332
335
339
337
337
341
345
345
344
348
351
350
352
357
360
361
365
368
365
365
367
367
360
356
352
344
334
328
325
320
313
312
314
311
307
308
311
310
307
311
313
308
306
310
314
312
309
313
315
312
311
314
315
312
312
316
316
312
313
316
317
314
314
317
318
315
315
318
318
314
316
319
319
315
316
320
318
315
319
317
315
317
320
318
315
318
320
317
315
319
320
318
317
320
321
319
318
322
323
319
318
322
322
319
319
322
322
319
320
324
324
321
321
323
322
319
321
325
324
321
323
326
324
321
323
326
324
322
325
327
324
322
324
326
323
322
325
326
324
321
325
326
323
326
326
323
323
326
326
322
323
326
326
323
325
331
329
325
329
336
336
332
335
341
342
339
337
335
327
322
323
324
321
320
323
326
322
321
323
324
320
325
341
365
396
408
393
367
335
299
293
314
325
328
331
327
324
325
329
329
326
328
332
331
328
331
331
330
334
336
334
333
337
338
336
336
341
344
341
341
347
350
347
350
356
359
358
361
367
369
367
368
372
372
368
368
369
362
352
347
343
334
325
322
320
314
310
311
312
307
306
308
310
307
306
309
311
308
306
308
310
307
306
310
311
307
307
311
312
308
313
311
307
310
312
311
308
310
313
310
307
310
313
311
308
311
314
311
308
311
313
310
308
312
315
311
309
313
314
310
310
314
315
311
309
313
314
311
312
316
315
311
312
316
315
312
313
317
315
313
313
315
314
311
314
317
315
312
315
317
313
312
315
317
312
316
317
314
313
316
318
315
315
317
317
314
315
318
318
314
316
319
318
315
316
320
318
314
316
319
318
315
317
321
318
316
318
322
320
319
326
330
326
326
333
335
333
335
340
340
334
328
324
320
316
315
320
320
315
316
320
319
316
316
321
329
342
374
405
376
347
316
281
289
314
326
325
320
322
324
323
321
324
326
324
324
328
330
326
326
332
334
332
331
335
336
335
335
340
341
338
340
345
347
346
348
353
355
355
359
365
366
365
368
373
374
372
375
376
372
366
362
357
345
336
331
328
320
315
314
313
308
310
311
306
306
310
311
307
307
312
312
308
309
313
312
310
310
314
313
310
312
315
313
311
314
316
313
310
313
316
313
312
314
316
314
313
314
316
313
312
315
317
313
315
319
319
315
315
319
319
316
317
320
320
317
317
320
320
318
319
323
322
318
319
323
319
322
325
323
320
322
325
323
322
324
326
323
323
326
326
324
328
332
323
317
319
326
327
324
323
328
329
325
327
331
329
326
326
331
330
327
328
333
331
326
329
334
335
337
343
350
341
332
336
344
346
344
345
344
334
325
328
329
326
325
329
329
325
324
326
323
330
351
377
405
406
385
356
324
293
295
311
321
326
333
332
330
331
334
333
332
334
338
335
333
336
339
337
336
340
344
347
345
338
339
340
343
349
350
349
349
354
358
357
359
364
366
364
367
373
375
373
375
379
378
374
373
373
369
362
345
337
330
323
323
316
311
311
313
310
308
311
313
310
308
312
313
309
310
314
320
314
304
309
313
312
313
316
315
312
313
317
317
313
314
319
315
311
312
316
314
313
316
323
316
303
307
313
312
309
312
315
313
310
315
314
311
311
315
315
312
316
321
310
305
308
313
311
312
316
317
312
315
317
315
312
315
318
318
320
318
312
312
311
316
319
318
317
322
326
324
323
329
333
328
328
335
337
334
333
333
316
309
313
317
318
314
314
318
319
315
317
321
320
318
333
362
383
377
359
342
319
289
266
289
315
320
322
325
323
324
328
326
325
329
331
328
328
331
332
329
328
334
341
335
326
331
337
335
336
341
342
342
345
349
350
351
354
359
361
360
366
375
363
359
365
369
368
364
361
355
344
336
333
327
318
311
311
312
307
305
306
308
311
301
298
301
301
303
309
309
305
306
311
309
308
313
313
315
307
305
308
308
312
315
311
308
311
314
311
309
311
314
311
308
310
315
318
306
305
311
310
309
313
315
311
310
315
314
311
312
316
316
313
314
322
327
314
311
319
320
318
323
327
326
326
328
327
319
313
315
316
313
315
320
312
307
308
314
315
314
316
322
334
357
381
379
355
335
316
283
272
306
322
317
316
321
325
324
322
324
327
326
325
328
331
329
329
331
334
332
331
340
336
328
329
335
341
338
338
343
346
345
346
351
355
355
356
362
363
362
365
369
368
365
367
372
365
346
340
338
331
323
318
313
308
308
310
307
305
306
308
306
304
308
316
305
299
305
309
307
307
310
312
310
310
313
314
312
311
315
315
310
312
315
315
315
319
312
307
307
312
317
314
311
312
316
313
310
312
315
314
312
314
316
313
313
316
318
315
312
316
318
315
314
323
321
310
318
320
316
316
319
319
316
317
320
319
315
317
321
320
317
318
321
319
317
320
324
323
321
323
329
328
325
328
336
335
326
327
328
321
316
318
319
316
315
318
320
317
316
319
319
316
315
321
331
346
369
390
379
354
332
308
277
284
313
325
322
321
323
324
322
325
328
326
325
328
330
328
327
331
333
330
330
333
335
333
333
337
338
336
338
342
343
342
344
350
352
351
356
361
362
361
365
369
368
364
366
368
363
354
349
343
334
325
322
320
312
308
309
309
306
305
313
309
304
301
305
307
304
305
309
309
307
309
310
307
307
311
311
308
308
312
311
308
310
314
312
310
311
314
312
310
312
314
312
309
313
315
312
309
313
316
312
311
313
315
312
311
315
316
312
311
314
314
312
312
316
316
313
314
317
316
314
316
320
318
314
315
319
318
315
318
320
318
316
319
320
317
320
322
318
317
320
322
319
318
322
322
318
319
322
322
319
319
323
323
319
319
323
323
321
322
326
324
321
322
325
324
321
322
324
322
320
323
325
323
321
323
326
323
321
324
325
324
327
333
331
327
332
338
337
336
338
340
338
333
329
327
323
319
320
322
319
319
322
320
316
322
334
348
375
404
402
379
352
322
295
302
315
326
330
324
322
326
328
325
323
327
328
325
325
329
329
327
328
333
332
329
331
335
335
333
334
337
338
337
339
344
345
344
348
353
354
354
358
364
364
364
369
372
369
369
371
370
364
353
347
336
329
327
323
317
312
313
312
308
307
311
310
306
307
309
309
306
306
309
309
306
307
309
308
306
309
313
310
309
311
314
311
309
313
315
311
310
313
315
313
311
314
316
312
311
315
316
312
313
316
316
312
312
316
315
312
313
317
316
313
313
317
312
314
317
316
315
316
319
315
313
316
318
316
314
318
320
318
315
317
320
317
316
320
321
317
317
320
321
317
317
321
321
318
318
322
322
319
320
323
322
320
323
325
323
320
322
324
323
322
324
326
323
321
324
326
323
321
325
327
323
322
325
327
323
322
327
324
323
328
332
333
337
341
343
339
341
345
341
336
336
336
327
319
319
322
321
318
320
322
320
319
321
322
318
319
332
351
380
406
405
384
353
317
289
302
317
324
328
327
323
322
326
326
324
324
329
329
327
328
332
331
329
331
335
335
333
336
339
338
340
344
342
341
345
349
348
349
355
359
358
360
367
371
370
372
376
378
374
372
374
370
360
352
348
339
329
325
323
317
311
310
312
310
307
308
311
310
306
307
310
307
305
308
311
308
306
308
311
308
306
311
312
309
308
312
313
310
309
313
313
310
310
313
311
312
316
315
312
313
315
314
311
312
315
313
311
313
316
313
310
313
316
313
312
314
316
313
313
317
318
314
312
317
319
315
313
317
320
316
315
320
320
316
316
321
320
316
317
321
321
318
320
322
321
320
321
324
322
319
321
324
322
319
321
324
321
319
325
322
321
323
324
322
321
324
325
321
322
325
326
322
322
326
326
321
322
328
330
330
335
340
341
338
339
345
345
340
339
340
334
323
322
323
322
320
323
324
321
319
323
325
321
318
326
341
362
394
412
395
364
335
300
286
306
322
330
329
324
324
329
329
327
331
329
327
330
334
333
330
333
336
335
332
336
339
337
337
341
345
343
343
347
350
349
349
353
358
358
360
366
371
369
370
375
377
374
374
377
373
363
358
353
345
333
328
325
319
313
312
314
312
307
309
312
308
306
309
312
308
306
309
311
309
307
310
309
308
312
313
309
309
313
315
311
310
314
315
311
313
315
315
311
313
316
315
312
312
315
313
310
312
315
313
310
312
317
315
312
315
317
314
312
316
317
313
312
317
317
314
314
317
317
315
314
318
318
316
316
320
320
314
315
320
320
315
315
319
319
316
320
318
315
318
322
319
316
319
322
318
316
318
320
318
318
324
329
329
332
335
333
331
334
339
338
331
325
320
317
313
314
317
316
312
314
317
316
313
315
318
323
338
368
397
391
363
338
313
274
270
303
323
321
319
321
325
321
321
324
325
322
322
326
328
325
329
329
326
328
333
334
332
333
336
337
337
340
342
343
342
346
351
352
352
357
363
363
363
369
372
370
370
372
374
368
360
356
348
338
329
325
319
311
307
309
307
302
301
304
304
300
299
304
304
301
301
305
306
303
304
307
305
303
305
308
306
304
307
308
305
307
310
308
306
309
311
307
306
309
311
307
306
309
310
307
307
310
310
306
307
311
312
309
309
313
313
309
310
314
314
311
312
315
313
309
312
316
313
311
313
315
312
311
314
316
314
314
316
317
313
314
318
318
315
314
318
318
314
315
319
319
315
320
321
316
316
320
320
316
318
321
320
317
319
322
320
317
319
322
320
318
321
323
321
320
323
325
325
327
333
339
336
332
337
342
340
336
336
331
320
317
320
320
316
318
322
321
318
319
323
321
323
337
365
399
405
386
363
332
291
285
311
322
322
326
328
320
324
327
324
322
326
329
325
325
329
330
327
328
333
333
331
332
337
338
335
337
342
342
340
343
348
349
348
352
359
360
361
364
369
369
369
371
373
370
367
367
365
354
345
341
335
325
319
318
316
309
308
309
308
304
304
307
308
305
305
309
308
306
308
311
307
307
310
312
309
309
311
309
307
310
313
311
309
312
315
312
309
312
314
311
308
313
314
310
309
312
314
311
310
314
314
311
311
316
315
311
313
318
316
312
314
318
317
314
315
319
316
314
316
320
318
315
316
321
318
315
317
320
317
316
320
322
318
321
321
318
317
321
322
318
318
322
322
320
320
323
323
320
321
324
324
321
322
325
323
320
323
326
324
321
323
328
323
321
324
328
324
323
327
334
333
336
342
340
337
340
346
344
337
332
327
323
319
318
322
322
320
320
324
324
320
321
330
340
361
397
411
359
332
296
285
306
323
329
327
322
325
328
326
324
328
330
328
328
331
332
329
330
334
335
332
333
337
337
335
336
340
342
339
341
347
348
345
349
355
355
355
360
366
367
367
370
374
373
371
373
376
369
363
360
354
341
331
329
325
317
311
312
312
307
305
308
305
306
309
309
306
306
309
308
305
307
311
310
306
307
312
311
308
310
313
311
309
312
314
311
309
313
315
311
309
312
314
311
309
313
314
310
310
313
314
311
312
316
315
312
312
317
316
312
313
317
316
313
314
318
315
312
315
319
317
314
317
319
318
318
320
318
315
317
320
318
317
320
321
317
317
320
321
318
318
322
322
318
319
321
321
319
319
322
322
319
320
324
321
318
321
324
322
320
322
324
321
320
323
326
325
327
334
338
338
337
336
341
341
341
341
338
327
320
323
322
318
318
322
322
318
318
322
320
330
353
382
408
401
378
347
311
281
297
319
324
327
328
326
325
326
330
329
327
330
333
329
329
333
335
332
331
335
337
334
336
339
340
338
340
345
346
343
346
352
352
351
354
360
362
362
367
372
371
370
372
377
376
372
372
371
363
354
348
342
332
324
321
314
310
312
312
309
310
319
307
300
304
310
311
307
307
312
312
308
311
315
313
312
313
315
315
311
313
317
315
312
314
316
314
314
322
320
307
307
313
317
313
312
315
317
315
314
317
319
316
315
318
318
316
316
319
320
317
318
321
326
321
311
314
317
318
322
321
317
320
324
321
319
321
323
321
320
322
325
320
318
323
331
330
317
319
324
322
321
325
326
323
323
328
329
329
333
340
343
338
336
342
343
340
340
345
334
313
313
320
320
318
320
323
321
319
321
324
321
329
358
385
392
375
359
337
309
276
279
322
323
328
329
327
327
331
331
328
329
334
334
329
329
335
336
333
334
340
342
342
334
335
338
338
341
346
347
347
350
354
353
355
361
366
364
366
371
375
372
377
380
372
368
365
365
358
348
341
337
330
320
316
317
315
309
311
319
312
299
304
312
311
308
313
311
310
313
316
314
312
318
325
311
306
310
316
312
311
316
317
312
313
316
316
313
313
317
315
313
316
321
310
304
309
317
317
312
313
317
316
314
318
318
315
312
316
319
317
318
321
314
311
312
317
318
317
315
318
319
316
315
318
319
317
320
330
326
317
324
323
322
324
332
333
328
327
327
319
313
314
318
317
319
322
314
309
310
315
321
319
314
321
341
362
373
362
344
325
301
275
279
308
320
329
321
313
317
324
324
323
323
330
330
328
326
329
330
327
329
335
339
335
327
330
333
332
336
342
339
338
344
346
347
353
357
356
358
363
367
368
373
367
367
364
362
364
361
349
342
339
331
321
319
318
313
308
307
310
310
312
304
301
305
302
306
310
307
305
309
312
310
308
310
312
310
309
312
314
313
317
310
308
309
310
314
314
310
309
313
315
312
312
314
313
309
316
313
309
310
316
320
309
308
315
316
316
318
321
321
320
323
328
323
320
317
314
310
308
311
312
311
308
310
312
307
307
312
313
309
318
328
341
363
372
361
340
314
280
265
284
307
314
316
316
315
317
319
318
316
319
322
320
319
321
323
321
322
326
327
323
328
330
329
334
330
327
329
333
339
341
340
342
349
351
351
354
359
360
357
357
360
355
350
353
354
348
337
331
325
318
312
312
312
306
304
306
308
303
302
305
307
303
303
307
307
308
313
307
303
303
306
310
310
307
308
312
312
309
310
312
311
308
309
311
309
311
314
311
308
311
314
310
309
311
314
309
308
311
313
310
309
314
316
313
311
316
316
313
314
317
316
312
313
316
316
312
314
318
316
313
315
318
315
312
315
321
319
316
320
325
323
320
323
327
328
329
330
327
319
315
317
317
314
313
317
316
312
316
317
314
313
319
326
340
367
394
386
360
338
312
277
285
311
322
322
320
321
324
323
320
323
326
323
320
323
326
324
324
326
329
327
326
331
332
331
334
338
338
336
337
341
341
341
343
348
350
348
352
358
358
357
361
365
364
363
365
367
361
354
348
341
325
323
321
313
309
310
312
307
305
307
308
304
304
309
309
306
306
310
309
306
306
309
309
305
307
311
310
307
308
312
311
307
309
313
312
309
313
315
312
309
313
314
311
310
314
316
313
312
313
316
313
313
317
318
315
313
317
317
314
314
318
319
316
316
318
314
316
320
319
316
318
322
321
318
320
322
320
317
319
322
319
317
321
323
320
319
323
325
321
320
324
325
321
319
322
323
320
321
325
326
321
322
325
325
322
323
327
326
323
324
326
325
323
326
328
325
322
325
329
326
323
324
327
325
324
326
327
325
332
334
329
327
333
337
333
332
337
342
342
339
337
332
323
321
324
323
321
322
325
325
321
324
326
323
320
328
343
364
397
411
399
374
342
307
297
313
324
330
331
325
324
328
331
327
327
331
331
327
328
333
335
330
331
335
334
332
333
339
339
336
337
343
341
344
347
346
345
351
358
357
356
361
366
366
364
368
373
371
369
371
371
364
357
353
346
335
328
326
322
315
313
314
313
309
309
311
310
306
307
312
311
308
309
311
308
306
309
312
309
306
309
313
311
309
312
314
312
312
316
317
312
310
314
316
314
314
317
314
315
317
318
314
314
317
317
314
314
318
318
314
315
318
318
315
318
321
317
314
318
320
319
317
319
320
318
317
320
321
318
318
322
322
318
318
322
323
319
318
321
322
319
321
325
324
319
319
323
323
320
321
323
323
319
322
325
323
320
323
324
321
321
324
322
320
324
327
324
321
324
327
324
324
331
337
334
336
341
343
340
339
341
340
335
332
327
321
316
318
321
321
317
319
323
322
318
317
322
328
342
374
409
407
384
357
326
287
290
316
327
326
322
325
328
325
324
326
328
327
327
331
331
328
328
333
332
333
336
336
334
336
340
340
339
343
348
346
344
348
355
356
356
360
365
365
366
370
374
373
373
376
377
372
367
365
359
346
337
334
329
321
317
317
314
309
307
309
309
307
309
311
310
306
307
310
308
306
308
312
310
306
310
313
311
309
312
315
312
310
314
311
310
313
315
313
313
316
317
315
314
316
316
312
314
317
316
312
314
318
317
313
314
318
317
314
316
319
316
313
316
319
317
315
318
320
317
315
319
321
318
316
320
322
318
317
321
322
319
318
321
323
319
318
322
323
319
319
323
323
324
327
319
317
327
333
336
332
332
339
339
337
337
335
326
317
317
320
316
316
320
322
319
318
322
322
317
320
340
368
391
400
387
365
338
290
269
293
318
324
327
327
324
326
329
327
325
328
331
330
327
330
333
331
332
335
338
336
334
338
342
339
339
343
347
349
352
346
347
352
359
362
360
365
370
371
369
372
377
374
370
369
370
363
352
345
340
331
323
323
325
309
302
306
311
309
306
309
310
306
305
309
313
309
307
311
313
310
312
322
319
305
306
314
315
313
313
316
316
313
315
318
315
311
314
317
316
320
313
309
309
311
317
314
313
317
318
316
314
317
319
314
312
317
320
315
316
326
317
307
311
318
319
315
317
320
320
317
318
322
320
318
318
321
321
323
334
330
328
329
333
336
336
334
334
334
324
317
318
318
315
314
318
318
316
314
318
322
322
318
337
365
379
368
352
332
274
283
310
320
321
325
325
322
324
328
332
326
319
324
326
326
329
331
328
329
332
334
332
331
335
336
334
336
341
343
339
343
352
344
341
348
355
356
355
360
366
366
364
366
370
368
362
359
358
348
338
335
336
320
307
307
311
308
304
304
307
306
305
307
304
304
307
308
305
305
308
308
306
308
313
319
308
302
308
312
308
308
313
312
309
309
312
310
307
310
314
312
307
309
312
311
310
314
319
305
301
307
312
309
308
312
313
311
312
315
314
310
310
316
318
316
316
319
322
317
317
323
324
323
325
327
322
316
319
306
304
309
314
313
310
313
316
313
312
314
316
320
336
361
380
369
349
331
307
272
271
305
321
318
318
322
322
320
320
324
323
321
326
332
321
316
321
328
328
325
328
333
331
329
332
336
335
332
336
341
340
340
344
348
348
350
356
360
359
359
364
366
363
366
364
355
349
346
339
327
321
317
314
308
309
316
303
295
300
306
303
300
302
306
304
303
306
308
305
303
306
309
306
306
309
311
307
306
310
311
308
307
312
313
309
308
312
312
308
308
312
312
308
309
313
312
308
309
311
309
306
308
313
312
309
312
312
309
312
314
311
309
312
315
312
310
314
316
312
311
314
317
316
316
320
321
320
319
323
324
321
326
331
328
319
316
318
315
312
313
316
315
312
314
318
315
312
315
318
320
329
351
380
390
373
353
334
297
275
299
319
319
320
324
324
322
321
325
325
323
327
327
325
326
330
329
326
327
331
331
330
333
336
336
335
339
342
340
341
346
349
349
349
354
359
360
361
366
368
366
365
369
369
364
359
357
350
338
331
329
324
316
313
314
311
308
308
310
308
305
308
311
309
305
308
312
310
307
309
311
309
307
311
313
308
314
315
311
309
314
315
312
312
316
315
312
312
315
315
312
314
318
318
313
314
317
315
312
314
317
315
314
318
319
317
315
315
317
315
314
319
321
317
316
319
321
316
315
320
321
317
317
320
321
318
318
322
323
319
318
321
321
319
322
324
322
319
322
322
319
321
325
323
319
322
325
323
321
324
326
323
322
324
326
325
324
326
326
323
324
330
332
328
327
333
334
330
333
338
340
340
340
338
332
325
324
326
325
322
324
326
324
323
325
326
323
320
325
334
347
373
408
409
386
361
334
299
298
317
330
332
329
331
331
328
330
334
333
329
329
335
335
331
332
337
336
333
335
340
338
336
338
343
342
341
344
348
345
345
351
356
354
355
362
367
365
366
371
374
371
370
373
372
366
361
359
351
339
332
329
324
316
313
315
312
308
309
314
312
310
310
311
308
306
308
312
306
310
314
311
309
311
312
310
309
312
314
310
310
313
315
312
311
315
315
312
312
315
316
311
312
317
315
311
314
318
317
313
313
317
316
313
315
317
314
311
313
316
314
312
315
318
315
312
315
317
315
314
318
319
317
317
320
320
316
316
317
318
316
318
321
317
318
321
320
316
318
323
322
318
319
322
321
320
322
325
320
319
323
324
322
320
321
322
321
321
323
325
322
321
324
325
325
328
337
339
338
338
341
343
340
338
339
336
325
320
321
319
315
318
322
320
317
319
322
320
318
325
342
365
396
405
387
356
290
290
310
320
326
327
321
320
324
325
322
323
326
325
323
325
329
330
326
328
333
332
329
330
335
335
333
335
339
338
336
340
346
344
344
350
355
355
356
362
366
365
364
368
371
369
368
370
367
358
352
348
340
329
324
323
318
310
308
311
308
304
306
310
306
309
310
308
306
310
311
309
306
309
311
310
308
311
313
310
309
311
313
310
309
314
315
312
311
314
314
311
312
316
314
310
312
316
314
312
313
317
317
313
313
317
317
313
314
318
315
312
314
320
317
315
316
318
315
313
317
320
316
315
319
319
315
316
321
317
317
321
320
316
316
321
320
317
317
322
320
316
319
322
320
317
319
324
321
317
320
324
321
320
328
336
335
334
337
340
338
337
339
338
331
325
322
320
316
316
320
320
317
317
321
320
316
315
323
335
356
388
407
389
358
332
298
274
293
318
326
324
325
329
327
325
328
329
327
327
330
333
331
331
332
334
332
334
336
338
337
339
342
342
339
342
348
349
348
351
356
356
356
360
365
367
367
371
374
371
370
374
375
368
362
357
350
340
332
329
324
316
312
315
313
308
307
311
310
307
307
311
313
311
309
310
309
310
314
314
311
312
315
314
312
314
317
314
310
312
316
315
313
315
316
313
311
314
315
313
312
315
316
313
313
316
317
312
310
314
315
312
313
317
315
311
312
316
317
312
312
316
315
312
315
318
315
312
313
315
314
313
316
319
315
313
317
319
315
313
317
314
312
315
318
316
315
318
318
317
322
329
332
330
332
336
335
333
335
337
333
327
321
318
314
311
312
315
316
313
314
315
314
311
317
329
346
374
400
388
356
329
299
269
282
310
323
323
316
314
319
322
320
320
322
323
321
322
326
325
322
323
328
328
329
332
332
331
334
338
336
335
339
343
342
341
346
350
350
353
359
363
361
362
365
368
366
365
368
367
358
349
345
338
327
322
320
316
309
307
309
307
303
304
306
303
301
304
307
304
301
303
307
305
304
305
308
306
305
309
312
309
307
310
311
307
307
311
308
308
311
310
307
307
312
312
309
309
311
311
308
309
313
313
310
313
317
313
309
311
315
312
310
314
318
316
313
316
317
313
312
317
318
315
313
316
317
315
316
319
320
315
316
319
318
315
318
321
319
316
318
321
320
317
319
323
322
319
320
322
320
319
330
332
333
340
343
338
337
343
342
335
332
329
323
317
317
319
319
316
317
322
321
318
317
322
329
345
375
408
400
371
345
315
279
288
315
326
324
321
324
327
324
322
326
329
325
324
329
332
328
327
333
335
333
330
334
335
333
336
342
343
338
341
347
346
347
351
352
352
358
364
364
364
366
371
372
369
371
373
369
363
357
353
343
334
329
326
318
313
314
314
309
307
310
310
307
307
310
310
306
307
313
313
309
310
312
312
310
312
315
313
310
312
315
314
312
314
315
313
310
314
317
315
312
313
315
311
309
313
313
312
315
315
312
312
316
316
311
311
316
318
313
313
317
317
314
313
317
316
314
316
320
318
314
316
319
318
316
317
321
319
315
319
321
317
317
320
322
318
318
322
322
318
316
321
322
319
318
322
323
319
318
322
323
320
323
329
334
334
338
341
340
339
341
336
331
327
324
317
313
318
322
318
316
318
321
319
316
320
330
346
375
408
405
374
344
313
278
284
312
327
326
320
320
324
326
323
324
328
327
323
326
330
328
326
329
332
329
328
331
335
334
333
336
341
339
339
344
346
344
344
349
354
353
353
361
366
365
370
371
368
370
372
369
363
359
354
343
332
327
325
318
312
311
312
309
305
306
309
308
305
308
310
306
305
310
314
312
311
312
313
310
310
313
314
310
310
313
315
312
310
313
314
312
313
316
314
312
314
316
313
310
312
316
315
311
313
315
313
313
316
314
313
315
317
314
314
318
321
317
315
318
319
317
316
319
318
315
317
322
322
319
319
322
319
318
318
322
320
317
318
322
321
319
322
325
321
318
321
324
322
327
326
318
315
319
327
331
331
334
339
343
340
340
342
342
338
337
335
325
317
317
323
324
320
323
321
318
318
322
327
343
371
402
404
378
350
323
282
276
308
327
325
324
328
330
327
324
329
336
332
322
326
330
328
328
332
335
334
334
338
338
336
338
341
342
340
343
349
349
347
351
356
355
356
361
366
364
365
369
374
375
374
375
376
370
365
364
358
337
334
327
319
316
318
315
308
306
310
311
307
308
311
309
306
310
314
312
308
308
313
312
309
310
313
312
311
313
315
313
311
314
317
313
310
313
314
311
309
314
316
311
309
312
315
310
311
314
313
310
311
313
314
309
309
313
314
311
313
316
313
310
312
313
312
313
316
314
312
313
316
314
311
313
316
313
310
315
317
314
312
315
316
314
313
316
316
313
313
319
323
322
324
328
330
329
330
334
334
331
331
330
323
314
312
315
312
310
313
316
312
308
313
316
313
320
342
372
396
388
361
334
301
265
275
307
316
320
319
316
318
323
323
320
319
323
324
322
323
327
327
324
326
331
330
328
331
335
333
332
337
341
340
339
344
347
345
347
353
358
356
357
363
365
365
367
372
371
365
362
360
353
343
337
335
327
317
313
313
310
305
306
308
305
302
302
305
303
301
305
309
303
307
310
307
305
308
311
308
307
311
311
308
308
313
314
311
310
313
312
309
310
314
313
309
310
315
316
315
315
318
315
311
313
316
314
312
315
317
315
313
317
320
317
315
317
319
318
316
319
320
316
317
322
322
317
317
320
321
316
317
322
321
318
318
321
318
321
325
322
319
321
325
323
318
320
324
322
321
326
331
331
331
335
340
340
337
341
343
339
336
338
335
324
320
322
322
318
319
322
322
318
320
323
319
324
345
377
409
403
379
353
317
276
285
315
325
325
328
328
325
324
327
329
327
326
328
330
328
332
334
332
332
336
335
332
335
341
341
338
339
347
346
343
345
351
352
351
355
359
360
361
366
371
370
367
371
373
370
366
365
362
352
340
335
332
324
319
318
316
309
307
309
310
306
305
309
309
307
307
310
310
308
309
312
311
309
310
314
313
311
312
315
309
312
315
314
312
314
317
313
310
313
316
313
311
316
318
313
311
315
316
313
312
315
317
313
313
316
317
313
314
318
318
315
316
319
317
314
316
320
317
314
316
320
319
316
318
321
318
316
319
321
318
317
320
321
317
317
321
322
319
318
320
321
320
320
323
320
320
323
322
319
319
325
326
327
329
333
334
336
340
341
338
335
336
339
333
324
321
321
317
316
320
323
320
317
319
321
317
320
337
361
390
410
397
368
335
296
278
301
319
323
327
324
321
322
327
326
324
325
329
329
325
327
331
330
328
331
335
333
336
338
336
335
339
341
339
339
345
350
348
347
353
358
357
360
365
368
367
369
373
372
368
368
369
363
353
347
343
334
324
321
322
316
309
309
311
308
305
307
310
307
306
308
312
314
313
304
305
305
306
311
313
310
311
316
315
312
312
315
315
311
312
316
313
314
316
315
312
313
317
316
316
321
313
308
308
313
317
314
313
315
318
315
313
317
319
316
314
318
319
315
315
318
319
317
318
322
320
317
318
323
322
317
318
323
324
325
316
316
318
318
319
321
319
317
321
324
320
320
327
333
332
334
337
335
334
337
343
336
328
322
320
317
318
325
328
312
308
317
322
321
320
329
347
372
399
398
373
343
314
280
277
305
325
330
327
324
327
330
329
327
330
332
328
326
331
334
331
329
334
337
335
334
338
340
336
338
344
346
342
343
349
350
347
349
357
359
357
361
366
368
369
373
371
369
371
370
362
352
348
343
332
323
322
318
311
307
309
308
302
302
306
307
303
304
307
308
303
303
309
308
306
307
311
310
307
309
312
311
308
309
311
309
307
308
313
311
309
312
312
309
307
311
312
308
307
311
312
308
308
310
312
309
308
313
309
309
313
314
310
310
313
312
309
311
314
313
311
313
316
314
310
311
316
314
311
313
316
313
310
313
316
312
311
315
318
315
313
316
317
314
314
319
320
319
323
327
327
326
327
329
330
330
333
335
331
322
316
317
315
309
311
315
315
314
316
317
313
311
341
366
395
399
376
344
309
274
277
304
317
323
322
318
318
323
323
320
320
324
325
322
323
327
327
325
326
330
329
326
330
335
334
331
335
339
338
337
342
345
344
346
352
356
355
355
360
364
362
364
370
372
368
365
366
364
354
346
342
334
324
319
317
314
306
308
305
302
303
305
304
301
304
306
305
302
304
307
307
306
308
311
309
307
310
313
309
307
308
310
308
308
311
312
310
310
313
312
307
309
312
313
311
312
313
313
310
311
315
315
311
311
314
313
310
313
317
315
312
314
318
316
313
316
319
315
313
316
316
316
320
321
317
317
319
319
318
319
321
320
316
317
320
320
318
319
323
321
316
318
323
321
318
320
324
323
319
321
323
322
321
325
329
327
323
327
334
332
331
337
341
339
337
336
333
326
321
322
322
320
321
323
323
320
320
322
322
319
321
332
347
370
416
391
359
329
291
286
310
327
331
328
326
329
331
328
327
330
332
328
327
332
334
331
331
335
337
333
333
337
339
338
340
343
342
339
343
348
349
348
351
356
356
357
362
367
367
368
371
375
373
371
374
374
368
360
356
350
340
332
329
324
316
313
314
312
306
310
310
305
306
310
310
305
307
312
312
307
308
312
312
309
312
314
312
310
313
315
312
310
314
317
314
311
314
315
312
311
315
315
312
311
314
315
311
311
314
315
312
313
316
316
312
313
317
316
313
314
318
318
314
315
318
317
316
317
319
318
315
318
318
315
320
323
319
317
318
321
320
320
323
324
320
319
323
324
320
322
324
322
319
321
325
324
321
322
326
325
321
323
328
330
332
338
343
341
338
342
346
343
336
334
329
320
317
322
323
318
317
322
324
321
319
320
323
332
355
390
413
397
371
343
307
282
315
322
321
323
327
326
324
325
328
327
327
328
331
329
328
332
337
334
332
335
340
339
337
341
344
342
340
344
347
346
347
353
358
356
359
372
371
359
361
370
372
368
370
374
373
367
364
360
351
341
337
333
323
316
315
316
314
309
310
312
307
306
310
312
309
318
314
301
303
311
314
311
310
315
316
313
312
315
316
312
313
316
315
313
314
317
316
313
315
320
321
309
307
313
314
311
315
318
315
313
317
319
314
313
318
321
317
316
319
320
317
317
320
322
326
318
314
315
315
315
320
319
317
319
322
322
319
321
326
327
333
340
342
332
326
333
335
332
331
326
316
312
316
319
316
315
319
319
316
316
319
321
333
356
374
383
367
350
331
300
267
281
314
324
320
323
328
327
324
325
330
332
326
320
323
326
326
329
333
333
332
334
337
335
334
337
339
338
339
345
346
343
357
349
346
352
361
364
362
366
371
371
368
369
373
368
361
357
353
342
331
327
327
323
306
305
310
308
307
308
310
306
305
308
310
306
303
308
311
309
313
320
309
302
307
312
312
308
310
314
312
310
311
316
315
312
312
319
321
305
304
311
311
309
310
313
312
314
315
311
310
313
317
317
316
309
311
312
314
317
315
312
314
318
318
313
313
319
319
314
314
319
319
315
320
328
320
315
320
330
332
327
328
333
333
331
330
328
318
313
316
316
311
309
315
317
313
315
325
314
313
334
364
381
366
346
331
309
274
275
323
319
320
324
324
320
322
325
324
323
326
328
326
323
326
330
327
325
332
340
330
324
330
337
336
336
341
343
340
340
347
351
349
350
355
359
359
360
364
365
363
363
367
366
359
355
352
342
331
325
322
316
309
308
308
303
302
306
307
304
301
303
305
301
305
307
304
303
307
308
305
306
310
310
306
306
311
311
306
305
310
309
305
306
310
308
305
307
310
307
304
306
309
307
305
308
310
307
306
308
309
306
304
308
311
308
306
310
311
307
307
312
312
308
308
312
313
311
311
314
315
315
316
319
319
319
322
328
319
317
314
311
307
309
312
310
308
310
313
310
308
311
314
311
316
334
359
380
379
362
343
313
277
278
304
314
317
321
319
316
318
323
323
320
321
323
322
320
322
325
324
322
325
330
329
327
331
335
332
330
334
338
336
336
340
344
343
343
350
353
351
354
363
361
361
366
365
361
359
357
349
337
330
329
322
313
310
311
306
304
305
307
304
301
303
306
304
302
305
308
305
304
308
310
306
303
308
310
307
306
311
312
308
308
312
312
308
308
311
312
309
309
313
313
309
312
315
313
310
312
315
313
311
313
316
313
315
317
313
312
316
318
315
316
319
320
315
315
319
319
315
316
319
319
316
316
320
322
318
317
321
321
318
320
322
320
317
319
323
322
319
320
324
322
319
322
323
320
319
322
325
322
319
323
325
322
321
324
326
322
321
324
325
323
323
326
326
322
323
327
322
324
328
328
328
330
334
334
335
338
340
339
338
342
344
338
330
328
325
320
317
323
326
322
321
324
325
321
319
324
332
341
367
406
414
393
368
339
299
290
312
328
329
325
325
329
327
326
328
330
327
326
330
333
331
329
331
333
331
331
336
339
336
335
342
340
340
346
349
346
347
352
355
355
358
364
367
364
367
374
375
372
372
375
373
368
366
363
353
342
337
333
326
319
319
318
314
311
312
314
310
309
312
314
309
308
311
314
312
311
314
314
310
310
315
314
311
313
318
318
312
312
315
316
314
315
319
316
316
320
317
315
316
319
316
314
317
321
318
314
318
320
316
314
317
318
316
315
319
321
317
316
318
318
316
315
319
319
316
316
320
320
317
318
322
320
317
317
321
319
315
318
322
320
318
320
322
320
318
323
324
320
318
322
323
319
320
325
325
320
317
322
323
325
332
337
337
338
340
338
337
341
342
335
328
324
323
320
315
316
320
319
317
319
322
320
317
321
331
343
367
404
411
385
355
327
288
287
312
329
331
325
324
327
327
323
325
329
330
326
327
332
331
329
331
334
333
331
334
338
337
335
339
343
342
341
350
348
349
355
359
357
359
363
368
367
369
375
378
373
371
375
375
366
361
356
347
336
330
328
321
315
313
315
311
307
308
310
307
307
310
315
315
301
300
306
306
304
306
309
308
307
311
312
308
307
311
312
309
309
315
316
311
312
316
314
310
310
314
312
311
316
313
312
313
317
320
314
306
309
311
309
313
316
314
312
316
319
314
312
316
319
315
314
317
318
316
315
319
319
316
316
320
321
317
317
321
327
315
311
318
319
316
318
322
323
324
328
335
336
331
332
337
339
338
337
337
327
318
319
321
319
319
327
311
314
321
323
317
322
344
372
395
397
380
353
323
286
278
304
321
324
329
328
328
337
331
321
321
326
332
330
328
332
335
333
332
334
337
335
335
340
343
339
339
345
349
353
349
345
348
350
354
361
363
363
365
370
371
370
373
377
376
371
369
368
360
350
340
333
329
317
311
309
308
311
313
309
307
310
312
307
306
310
311
310
310
314
318
315
306
309
313
310
312
315
316
312
313
318
317
313
314
318
316
312
314
323
316
303
308
316
313
311
314
317
314
313
315
317
315
313
316
317
313
314
324
316
306
310
317
318
315
319
318
314
316
320
318
315
316
321
320
317
323
335
327
320
329
336
332
331
336
338
331
326
324
321
316
314
317
317
314
315
321
326
312
308
315
326
343
366
381
367
345
326
304
274
279
307
323
321
319
322
326
324
324
326
320
318
319
324
329
326
324
328
329
327
331
335
332
332
337
339
336
337
343
346
351
345
343
348
351
355
361
362
360
362
367
368
365
364
366
362
353
347
343
334
324
320
318
312
307
308
309
304
307
306
301
299
300
304
306
302
303
308
309
304
303
307
309
305
305
310
311
307
309
311
310
307
311
312
308
311
319
305
299
305
310
308
304
306
309
305
304
308
312
309
307
310
312
308
307
311
311
308
308
312
312
308
307
311
312
310
314
318
316
314
316
320
320
318
322
329
328
320
317
317
313
309
312
314
310
308
312
314
311
309
313
316
312
315
334
359
376
358
337
310
276
268
296
313
316
320
321
317
318
323
323
320
320
324
323
320
323
326
326
324
325
328
327
326
329
333
331
330
333
335
333
334
340
344
343
344
350
353
353
355
362
364
361
362
366
367
362
359
357
349
337
329
326
320
312
309
311
307
302
303
304
301
304
306
303
302
304
306
304
303
306
308
304
304
308
310
307
306
311
311
307
307
311
312
308
308
310
309
307
308
312
312
309
310
313
310
306
308
312
311
309
311
312
309
308
313
316
313
311
312
313
311
309
313
313
312
312
315
316
312
311
315
316
313
317
316
312
313
317
317
315
316
321
319
315
317
320
320
320
322
325
323
323
328
330
328
328
334
338
332
326
324
321
316
314
318
319
317
317
321
320
315
316
320
319
321
333
359
388
398
383
364
336
296
282
307
320
322
324
327
324
323
325
328
325
324
327
329
326
330
331
331
328
324
336
336
334
337
337
335
336
340
340
338
340
347
348
347
350
357
358
358
361
368
367
364
367
370
367
363
363
361
351
342
336
332
322
315
316
317
310
306
308
311
307
307
309
309
306
307
310
310
305
307
312
313
307
308
312
312
309
309
313
310
310
315
313
309
313
317
314
311
313
317
314
313
316
318
314
311
315
318
314
313
317
318
316
315
319
320
316
316
320
320
317
317
321
319
317
318
322
322
317
317
321
320
317
319
322
321
319
321
323
320
317
320
324
320
319
323
326
322
320
323
324
320
324
325
322
321
325
324
321
322
326
325
321
322
326
324
322
323
327
326
322
322
327
327
326
328
331
330
330
332
335
334
334
341
344
335
329
327
326
320
319
324
326
323
322
326
326
322
321
324
325
330
345
374
404
400
380
358
326
286
293
320
327
327
328
330
326
328
330
327
326
331
334
331
330
334
337
333
333
337
337
335
335
339
341
338
340
345
347
344
346
351
353
352
354
361
363
361
366
370
370
367
370
375
372
369
368
367
356
346
341
337
328
320
320
318
311
308
311
312
309
308
310
312
308
307
311
310
306
306
310
307
309
314
313
309
310
313
311
309
311
314
312
309
314
317
313
310
313
315
312
309
314
316
312
311
315
317
314
314
317
317
313
312
315
316
313
313
317
317
313
314
319
318
315
316
321
320
316
317
320
319
314
318
320
317
316
318
321
318
315
319
321
317
319
321
318
316
320
321
318
318
321
322
318
317
321
321
317
317
320
321
319
321
325
323
320
323
329
330
330
334
340
338
335
341
342
335
329
329
324
316
313
316
319
317
315
318
319
315
315
318
322
330
351
385
404
386
361
339
301
274
295
320
324
321
322
325
320
322
326
325
323
325
328
326
324
328
331
329
327
331
334
331
330
337
339
336
336
342
343
341
342
349
352
351
353
357
360
360
364
368
368
367
368
372
370
364
362
359
349
338
333
329
322
315
315
315
309
306
307
309
305
305
309
309
305
304
308
309
306
305
310
307
306
309
310
307
308
311
310
306
307
311
310
307
310
313
311
308
310
314
311
308
311
313
310
307
311
314
314
312
314
315
312
312
316
316
313
312
315
317
313
314
319
319
315
316
319
318
315
317
320
320
316
317
322
320
318
319
323
321
318
321
324
321
322
325
323
321
324
325
322
322
325
327
323
323
327
328
326
329
337
341
341
341
343
344
342
344
345
340
332
325
326
323
320
322
326
323
320
321
323
321
318
326
345
368
398
409
388
355
324
290
282
306
324
331
331
326
326
330
330
326
328
333
331
327
329
333
330
331
336
336
333
336
340
338
335
339
344
342
342
347
351
350
349
354
358
357
358
364
368
366
366
371
373
369
369
371
370
360
353
349
341
329
323
321
316
311
311
312
310
306
306
309
308
306
307
310
307
304
308
311
308
306
309
310
307
307
311
312
308
307
312
309
308
311
310
307
307
311
312
306
306
310
309
307
308
310
308
305
307
312
310
306
308
312
310
306
308
310
308
307
311
314
309
308
311
314
309
307
311
313
311
312
315
315
311
311
314
316
312
312
316
316
312
314
317
316
311
313
318
317
314
314
319
317
319
328
329
327
330
335
332
330
335
337
331
326
322
317
312
310
314
315
311
311
314
314
311
312
320
330
347
377
402
388
356
328
298
267
280
311
324
322
319
322
324
322
321
324
327
325
323
326
329
327
326
329
332
329
329
334
335
332
331
337
339
338
339
344
344
347
353
354
353
357
363
364
364
366
369
368
366
368
371
366
359
355
351
340
331
326
322
314
308
309
310
306
304
307
308
304
303
307
308
305
304
307
309
307
308
310
311
308
310
313
311
309
310
314
311
307
309
313
311
308
312
314
310
308
310
313
310
309
313
309
308
313
315
311
312
316
318
314
312
315
316
312
312
317
316
313
314
318
317
313
315
317
316
314
316
318
316
315
317
320
317
316
318
321
317
316
319
322
317
315
319
320
317
316
320
321
317
317
321
321
317
317
322
325
324
325
330
332
333
335
338
338
333
334
329
320
317
318
314
312
316
318
315
312
316
319
315
319
334
359
389
401
382
354
322
282
275
303
319
323
326
325
321
322
326
326
321
323
329
328
326
327
331
330
327
329
334
332
331
334
338
337
337
340
344
342
342
347
352
349
350
357
358
357
360
365
366
368
373
373
370
370
370
365
355
347
341
334
324
319
319
315
310
311
314
309
305
307
311
308
305
308
312
309
308
312
313
310
309
312
315
313
312
315
316
313
312
315
315
311
312
315
315
311
311
316
315
310
311
316
314
311
312
316
314
311
313
316
314
311
317
314
312
315
317
314
313
317
318
314
314
318
318
314
314
317
319
315
315
319
319
314
314
319
318
314
316
320
320
315
317
320
318
315
317
321
319
316
318
321
319
318
320
321
320
322
328
331
330
332
339
342
338
337
339
338
333
328
326
323
317
316
320
319
318
322
322
318
319
328
342
364
398
406
378
346
319
283
280
308
325
330
326
323
326
329
325
324
328
329
325
326
331
333
330
330
335
336
332
332
336
338
336
338
343
343
342
344
349
349
347
351
357
357
357
361
366
367
367
372
375
372
371
373
374
368
360
355
337
329
328
324
315
311
313
313
308
306
310
309
305
305
309
308
306
309
312
309
307
308
312
310
308
311
313
310
308
311
314
311
308
311
314
311
309
312
314
310
309
313
315
310
309
313
313
309
309
315
314
309
310
314
314
310
312
315
313
310
312
316
314
309
316
315
311
312
316
313
311
314
318
316
312
316
318
315
315
319
319
315
314
317
319
316
316
319
319
316
315
319
319
317
318
321
320
317
321
327
328
326
332
339
337
334
336
340
335
330
329
325
318
315
316
318
314
313
317
318
316
315
318
322
333
357
393
406
351
327
288
270
297
322
325
320
320
324
324
320
322
326
325
323
325
329
327
324
327
329
327
326
331
335
331
329
335
339
336
335
341
344
341
342
348
351
350
351
357
361
360
363
368
369
366
369
372
368
363
359
355
347
337
330
327
319
312
313
314
309
304
306
305
304
307
309
307
305
309
310
307
306
310
312
308
307
312
314
309
310
314
314
309
308
314
312
309
310
314
312
308
310
313
311
309
312
317
313
309
312
314
312
309
313
316
311
309
313
315
313
312
316
316
313
312
316
318
314
313
316
317
314
315
320
318
315
321
319
316
317
320
318
315
318
321
319
316
318
321
318
317
320
322
320
317
322
321
318
319
325
329
328
328
334
339
336
336
341
340
333
331
331
324
317
316
318
318
315
316
320
319
316
318
322
324
337
366
401
405
377
350
324
282
274
307
328
327
325
327
327
324
327
328
326
325
330
330
328
330
335
335
331
333
337
336
334
335
340
341
339
342
345
344
343
347
353
353
353
357
362
364
363
368
370
367
368
372
375
369
364
362
356
344
334
333
328
318
314
315
313
308
307
310
308
304
304
308
309
306
307
312
311
309
312
312
309
311
314
312
310
314
316
315
313
316
318
313
312
314
316
314
314
316
315
311
311
316
317
314
314
317
318
314
316
319
317
314
314
319
318
315
316
319
317
314
317
320
318
317
319
322
318
316
319
321
319
317
320
320
317
317
321
323
320
320
322
322
319
324
323
320
320
324
323
320
322
327
325
322
322
326
324
321
327
331
331
330
335
342
342
338
341
343
340
334
334
331
322
319
322
322
319
319
323
323
318
317
322
323
328
350
383
410
397
368
342
305
270
287
317
325
324
324
327
325
322
326
330
327
325
329
331
326
330
334
330
330
333
336
334
334
340
340
338
339
344
345
343
345
350
352
352
356
362
363
361
363
368
369
367
369
373
369
366
366
363
352
340
335
330
321
314
313
314
309
306
308
308
304
304
306
307
304
303
308
309
305
305
311
311
308
308
312
310
307
308
313
310
311
314
310
308
310
313
311
308
311
314
311
309
312
314
310
309
313
313
310
310
314
314
311
311
316
316
312
311
315
314
311
313
318
315
312
313
317
315
311
313
319
318
314
315
318
315
313
316
319
315
313
316
319
316
315
317
320
316
315
319
321
317
321
321
318
318
320
320
319
323
329
330
328
331
340
340
335
337
340
336
331
329
326
319
314
315
319
316
312
316
319
315
314
316
321
331
354
388
407
385
354
331
293
267
290
320
327
323
323
326
327
323
325
328
326
324
325
329
328
326
329
334
331
330
333
337
335
338
341
340
339
344
347
346
348
353
356
354
356
361
365
364
365
371
372
369
369
373
372
367
363
361
352
340
332
330
323
316
315
315
311
307
308
310
308
306
308
310
307
305
310
312
309
306
310
314
311
310
313
315
310
310
314
314
310
312
322
320
305
304
314
310
311
315
314
310
311
315
314
313
313
316
313
311
315
318
314
313
315
317
314
313
317
321
323
315
310
312
313
313
318
320
316
316
319
320
317
316
321
320
317
318
322
321
319
324
327
315
310
316
322
321
317
318
321
319
319
324
329
330
330
334
339
338
339
341
336
332
335
336
325
311
313
316
315
316
321
320
317
318
322
320
320
340
374
399
396
376
353
323
284
279
297
316
321
323
328
327
326
329
332
330
329
333
334
330
330
336
337
334
334
340
346
344
333
337
342
341
343
349
349
348
351
357
357
355
360
365
365
370
376
375
376
382
373
368
368
370
367
356
345
341
337
326
320
320
317
311
309
311
311
307
308
317
308
298
302
310
310
307
309
313
312
309
312
315
312
310
312
315
316
319
315
309
307
308
312
314
312
310
313
316
312
310
314
315
312
312
317
316
312
313
311
304
308
315
316
312
313
317
317
313
314
318
316
312
316
321
321
320
310
315
318
319
322
325
323
321
325
330
328
330
332
331
323
318
321
327
311
306
314
319
317
316
319
320
318
318
320
326
343
370
389
378
354
336
321
276
266
299
325
324
321
325
330
327
328
330
329
328
331
333
330
328
335
342
329
324
332
336
336
337
340
340
339
340
347
347
346
350
354
355
354
358
364
365
366
374
370
361
363
369
372
366
358
353
347
337
328
324
321
313
308
309
309
304
303
305
306
302
302
309
313
298
295
302
306
305
306
308
306
306
309
309
306
307
311
309
306
308
311
307
305
307
310
308
305
310
314
301
299
305
309
306
305
308
311
307
306
309
310
307
308
314
315
311
312
318
317
312
316
322
324
321
323
328
310
298
302
308
306
304
307
309
306
305
308
311
309
306
308
316
332
358
381
356
332
307
270
260
290
313
316
313
314
318
320
316
317
322
321
320
321
325
323
320
324
328
326
323
327
331
329
327
331
335
334
333
337
342
340
340
346
350
349
350
356
360
358
359
363
364
361
361
363
359
349
342
339
330
319
314
314
310
305
305
306
304
302
304
301
298
301
305
303
303
307
309
305
304
306
307
305
305
309
311
307
307
311
311
307
307
311
312
308
308
311
310
307
308
311
310
307
309
312
310
307
310
312
310
307
310
312
310
308
311
312
309
308
312
314
312
310
314
315
311
311
316
316
312
312
316
315
314
317
316
312
314
318
319
316
320
323
321
320
323
327
325
323
330
335
332
325
323
319
315
312
315
318
315
313
317
318
315
314
316
316
314
325
348
377
397
390
372
348
311
279
292
312
318
321
324
322
318
320
324
322
321
324
328
324
322
324
328
327
326
333
330
329
332
334
333
333
337
340
337
339
345
346
344
348
354
357
354
357
363
365
363
365
369
368
363
363
363
354
344
339
334
325
317
315
315
310
305
307
309
306
305
308
309
305
304
307
307
305
305
309
310
306
307
311
311
308
309
312
311
308
310
313
311
311
314
314
310
311
314
313
311
314
317
315
313
316
317
314
312
316
318
314
312
317
320
317
315
318
319
316
315
320
319
316
317
321
320
317
318
321
319
318
319
322
322
319
320
323
320
318
322
324
320
319
322
325
322
321
324
325
323
322
326
327
323
321
325
324
323
327
328
324
324
328
329
325
325
328
327
325
325
329
328
325
326
328
326
323
326
330
327
324
327
329
327
325
328
329
328
329
333
334
332
335
339
340
338
341
348
345
335
330
329
326
321
321
326
324
321
321
325
323
321
322
325
327
334
357
393
411
397
350
308
283
305
325
327
324
326
328
326
324
327
328
326
325
329
330
328
328
333
333
330
330
333
335
333
335
339
339
338
340
345
345
344
347
351
350
350
356
362
362
361
367
371
369
369
373
374
371
366
367
364
354
346
340
334
325
320
320
317
311
309
312
310
307
310
309
305
307
310
308
305
309
312
309
306
309
313
311
309
310
312
310
308
312
315
311
310
313
314
311
310
314
314
311
311
316
316
312
312
316
316
311
311
315
314
312
313
316
315
313
313
317
314
313
316
318
316
313
315
319
317
315
318
320
317
315
318
316
316
321
322
318
317
321
320
317
318
323
322
319
319
322
320
316
319
323
323
318
320
324
322
319
322
325
323
321
323
324
321
320
325
327
323
321
325
329
325
323
329
333
334
336
342
345
340
341
346
345
338
335
335
328
319
318
322
321
319
320
325
323
320
323
320
324
340
369
399
405
390
366
333
290
283
311
324
325
329
330
326
324
328
330
327
328
336
339
325
322
328
332
330
331
334
336
334
337
341
340
338
341
345
346
345
349
354
353
352
357
362
361
361
367
373
373
373
378
379
376
373
375
372
362
352
347
339
324
323
319
314
316
318
306
301
305
311
308
305
307
312
311
308
309
313
311
309
310
313
312
310
313
315
312
309
314
316
313
311
315
320
319
307
308
312
312
312
314
313
311
312
315
315
311
312
317
316
312
313
316
316
313
315
318
315
313
315
319
317
315
318
317
315
317
320
321
323
316
314
313
315
320
320
316
317
321
323
321
320
323
322
320
320
324
322
321
326
333
333
333
334
335
337
337
342
342
335
326
321
322
319
316
319
321
318
317
321
322
320
318
322
334
353
381
403
390
359
331
302
272
280
312
329
329
323
328
328
324
326
329
328
324
328
332
331
328
331
334
331
330
334
338
335
334
338
342
339
339
344
348
346
346
352
356
355
357
365
368
366
368
374
373
370
373
374
370
361
355
350
340
329
324
321
314
308
308
309
304
300
301
304
303
301
302
304
302
301
305
306
302
306
306
303
304
307
307
304
305
308
307
304
305
310
308
304
306
309
306
303
306
308
306
304
307
310
306
303
306
310
305
304
307
309
306
306
310
311
308
307
311
313
308
307
312
313
308
310
314
313
309
311
315
314
310
312
314
313
310
312
316
314
311
315
314
311
316
318
315
312
316
318
315
313
317
318
314
313
319
319
316
315
319
319
316
316
318
318
316
319
323
320
316
319
324
326
326
333
338
336
331
335
341
338
333
333
332
322
316
319
319
315
315
318
320
316
315
319
320
322
337
367
401
402
381
356
326
283
311
325
323
323
325
324
321
323
327
326
323
326
329
327
325
327
331
329
327
332
335
333
332
336
339
337
336
340
342
340
341
347
352
350
351
357
361
360
362
368
370
368
370
375
373
368
368
367
358
348
342
338
328
319
317
317
312
308
308
309
306
304
308
308
303
307
308
305
305
309
310
307
308
312
312
307
307
311
311
308
308
312
312
308
310
313
310
307
310
315
312
308
311
313
311
311
313
315
312
310
311
314
310
310
314
315
312
311
315
316
313
311
316
316
313
313
317
315
312
314
318
316
312
314
319
318
315
315
316
314
316
319
316
313
317
321
319
317
320
320
317
316
319
321
318
317
320
321
318
317
321
321
319
319
323
323
320
321
326
328
329
335
343
341
335
338
344
341
334
333
332
323
316
317
318
316
315
318
320
316
315
319
321
324
337
367
402
402
379
355
324
281
311
325
323
323
325
325
321
323
327
326
323
324
328
327
324
327
332
331
328
331
333
333
332
336
339
337
336
341
344
341
342
347
350
349
350
356
360
360
363
368
370
368
369
373
373
369
366
364
356
344
338
334
325
315
312
312
308
304
304
305
303
300
302
303
302
304
306
303
303
306
307
304
302
306
306
304
305
308
308
304
307
311
310
307
307
311
310
306
307
311
309
306
308
313
310
309
311
314
311
309
311
314
311
310
313
315
313
312
315
316
312
313
318
318
314
313
316
317
315
314
318
318
315
317
321
320
316
318
320
317
320
322
320
317
319
323
321
318
319
323
320
318
322
324
322
319
323
324
321
320
323
326
322
320
324
324
322
326
333
335
333
335
344
346
341
341
344
343
337
336
334
326
320
320
322
322
319
322
324
322
320
322
326
330
344
374
408
405
379
355
325
284
316
328
327
325
329
328
324
326
330
330
326
327
331
332
329
330
336
335
332
335
338
337
333
338
342
341
339
344
348
347
345
350
354
353
354
360
363
362
365
371
374
371
371
376
376
371
369
368
362
349
342
339
330
320
316
318
315
310
310
311
308
305
306
309
310
317
309
302
303
310
313
310
309
313
315
312
310
314
316
312
312
314
315
311
311
315
315
311
312
316
316
313
318
320
310
306
311
317
317
313
314
317
315
313
316
317
314
313
318
320
318
314
318
320
317
315
319
320
317
318
328
323
311
312
319
320
317
317
321
317
319
323
321
317
319
322
322
318
320
324
323
320
324
330
331
332
339
340
333
332
340
345
337
332
329
329
327
313
313
317
317
319
322
323
319
319
323
331
352
383
406
392
361
333
304
272
280
313
329
327
323
326
329
326
324
327
330
328
326
330
333
330
332
334
331
331
338
341
336
337
341
342
339
341
348
350
347
349
355
357
355
358
366
366
366
370
374
373
370
372
375
370
363
359
353
342
331
327
325
316
310
309
309
304
301
303
303
299
299
304
305
302
301
305
305
302
302
306
306
303
305
309
307
304
305
309
304
306
309
307
304
306
310
308
305
307
309
307
305
309
310
306
304
308
311
307
307
312
312
307
307
313
312
307
308
313
314
310
312
316
316
312
312
316
314
310
313
316
315
312
314
318
316
313
316
319
316
315
318
319
316
313
318
320
317
315
318
321
316
315
319
317
319
328
330
325
327
331
332
332
334
338
333
325
318
316
314
310
311
314
313
310
312
314
311
309
320
341
365
393
395
372
341
309
273
276
301
316
321
322
317
317
321
321
318
319
323
323
320
322
325
324
321
324
329
327
324
328
333
332
330
333
338
336
340
343
343
344
350
353
351
353
359
363
362
364
369
369
366
365
368
364
357
350
344
335
325
321
320
314
306
305
307
304
300
301
303
301
298
300
303
302
300
303
306
302
300
304
307
303
303
307
308
304
304
308
309
304
304
307
307
304
305
309
309
305
306
309
304
306
311
310
305
307
310
307
306
309
312
308
306
309
312
311
309
312
314
310
309
312
315
313
312
315
315
312
312
316
318
315
315
320
319
315
316
320
319
316
318
321
319
317
319
323
320
319
320
322
320
317
321
324
321
321
327
330
327
327
336
339
333
334
344
338
332
332
325
318
318
322
322
318
319
322
321
318
320
321
322
328
351
386
411
399
373
347
308
273
292
320
326
324
326
327
323
323
327
328
326
326
330
331
328
328
333
334
331
331
336
337
333
335
340
340
337
339
345
345
343
346
352
353
353
357
363
363
368
373
371
369
373
377
374
370
369
364
354
345
341
335
324
319
318
316
309
307
310
310
306
306
309
308
305
306
310
310
307
309
311
309
307
310
313
311
309
312
314
311
309
313
316
312
309
312
314
311
310
314
316
313
311
315
315
311
311
316
316
313
312
317
314
313
318
317
313
314
318
318
314
316
319
318
316
317
320
318
316
319
322
319
315
319
322
319
317
320
322
321
327
324
316
314
316
322
325
323
323
327
329
326
327
331
331
331
337
340
334
324
321
323
320
319
320
322
321
319
321
323
321
320
321
325
335
359
413
385
358
336
302
271
290
322
330
326
328
330
329
326
327
331
332
329
331
334
334
331
334
338
337
335
337
341
340
338
341
346
349
348
341
344
346
349
355
358
357
359
364
367
366
368
375
376
373
374
378
377
371
366
363
355
341
335
332
326
317
315
315
312
308
310
309
305
307
310
307
304
307
309
308
308
312
313
310
311
315
316
311
310
314
314
311
311
315
314
310
313
317
315
312
312
316
313
309
311
316
314
310
313
317
314
311
314
317
314
312
314
317
314
311
314
317
316
313
316
317
315
315
318
317
314
314
317
318
319
322
323
320
320
325
326
326
329
333
327
317
315
316
313
310
313
317
315
312
315
316
312
310
314
315
316
332
365
395
389
362
338
313
271
261
296
319
317
318
323
323
320
320
323
323
320
322
326
327
324
326
330
328
326
328
332
330
328
332
336
334
333
341
340
340
346
349
347
349
356
360
359
361
366
368
366
366
370
369
362
359
356
346
334
326
324
317
309
307
307
304
299
300
303
301
297
300
303
300
297
302
306
301
300
304
306
303
302
305
307
304
303
307
308
304
304
308
308
304
304
307
307
304
304
308
307
305
309
307
304
306
310
307
305
308
311
309
306
309
311
307
306
311
313
310
308
313
314
310
311
313
313
309
310
315
316
311
312
316
316
312
312
317
315
312
314
319
318
314
316
319
315
313
316
321
319
315
318
322
319
318
323
326
323
321
324
328
325
325
332
334
333
332
328
318
316
319
319
316
317
321
319
316
317
321
318
314
320
333
352
379
407
400
371
342
309
279
291
313
324
327
323
321
324
328
324
322
326
328
324
325
329
331
328
327
333
334
331
332
337
337
335
337
341
341
340
343
348
348
346
350
355
355
356
366
365
365
370
374
372
370
373
373
365
358
354
348
336
328
326
321
312
309
312
311
306
306
309
308
305
306
310
309
307
309
312
311
309
310
314
312
307
309
314
311
309
312
315
313
310
312
315
312
311
314
316
312
312
315
315
312
312
316
317
313
314
318
317
314
318
318
314
314
318
316
312
315
319
317
315
317
319
318
315
318
320
318
316
319
321
318
317
320
322
318
317
322
322
318
318
322
321
318
319
323
323
320
321
324
322
318
320
324
322
318
321
324
323
318
320
324
323
320
323
326
322
321
325
330
327
325
330
331
331
336
340
339
340
339
333
324
321
323
323
320
322
326
326
321
322
326
325
321
321
331
346
370
406
417
392
359
331
294
284
307
326
332
328
324
327
331
328
328
332
333
330
330
334
336
333
335
340
345
344
333
335
338
338
340
345
344
343
347
353
353
352
362
362
361
365
372
372
371
375
379
377
377
381
381
374
369
366
360
347
340
337
332
322
318
325
322
306
303
310
312
307
309
314
313
309
311
315
314
311
314
318
315
312
315
317
314
313
317
321
324
316
310
313
313
312
317
318
313
312
317
317
313
312
317
318
314
319
318
314
315
321
320
315
318
323
327
316
310
316
316
315
318
321
318
317
321
323
320
318
322
323
320
320
322
324
321
320
323
324
321
323
329
336
326
320
327
329
326
330
339
338
329
324
323
319
314
317
320
317
313
316
320
318
316
318
321
317
319
338
389
389
371
348
318
280
269
294
315
321
325
325
322
322
326
327
323
323
329
336
329
320
325
328
328
331
333
331
330
333
337
336
333
338
343
342
340
345
349
349
350
355
359
358
360
365
369
366
366
371
373
370
368
367
360
348
339
335
327
316
311
311
307
302
305
302
298
300
304
301
296
301
304
302
300
303
304
302
302
306
309
304
302
305
307
303
302
307
308
303
303
307
308
303
303
307
306
302
303
308
307
302
304
308
306
303
305
308
307
304
306
308
306
304
306
308
305
304
308
310
306
304
308
310
306
306
309
310
307
311
311
308
308
312
313
308
309
313
313
308
309
312
311
309
313
317
316
315
318
320
318
317
321
324
321
322
329
333
327
321
320
318
312
309
313
315
311
311
316
316
313
311
314
313
312
324
348
377
399
391
368
340
302
270
287
311
317
321
324
321
318
321
321
320
324
326
323
324
326
329
326
324
327
330
328
329
334
335
332
334
338
340
338
340
345
347
344
349
355
356
356
361
367
368
366
368
372
370
367
369
368
358
348
343
337
328
320
319
316
309
306
308
309
304
303
307
307
302
303
308
308
304
305
308
308
304
310
310
305
306
310
309
305
309
312
309
306
309
312
309
308
312
313
308
307
311
313
311
309
312
314
311
310
314
314
310
311
317
317
312
311
316
317
313
313
316
317
313
314
318
317
314
316
320
319
317
318
320
317
315
319
323
320
317
319
321
319
316
320
322
317
322
324
320
320
323
323
320
320
325
325
320
321
325
324
319
321
325
324
322
324
327
325
322
324
327
325
322
327
333
333
333
337
341
341
341
343
346
341
339
342
340
333
326
326
325
322
321
325
325
322
322
325
324
320
328
346
372
404
419
404
372
336
295
310
322
328
331
328
325
329
331
328
328
332
335
332
331
334
336
334
333
338
340
337
337
342
342
341
342
347
348
347
349
355
356
354
357
363
363
362
367
374
373
373
378
382
380
377
379
380
372
364
359
354
343
334
329
328
321
316
317
317
312
310
312
315
318
307
307
306
309
313
313
309
312
316
314
312
314
317
315
312
315
318
316
313
316
319
316
314
317
320
316
315
318
320
315
313
320
327
316
307
313
317
313
314
319
318
315
316
320
319
315
316
320
320
317
318
321
319
317
319
322
320
317
320
324
324
325
318
316
317
321
323
320
319
323
325
322
322
329
334
334
336
338
336
336
339
343
341
339
330
317
315
314
316
321
319
316
318
321
320
317
319
327
343
368
398
403
377
347
324
288
273
299
324
329
326
327
336
333
321
321
329
331
328
329
334
334
330
332
337
336
334
337
340
338
340
344
343
342
346
351
350
349
355
359
358
360
366
370
368
370
374
377
374
373
376
376
368
361
357
350
338
330
327
322
315
313
314
312
305
306
310
308
303
303
308
306
303
306
309
305
304
308
311
308
306
308
310
307
306
309
311
307
307
309
310
307
310
311
306
305
309
309
305
305
308
307
304
306
310
308
305
306
310
307
304
307
310
308
306
307
312
308
306
309
312
309
306
310
311
307
306
310
313
309
308
312
314
310
309
313
313
309
311
316
317
316
320
328
328
321
324
332
332
325
324
322
313
307
309
312
306
309
311
308
306
309
312
315
328
356
386
388
364
341
317
276
262
294
315
314
314
318
318
314
315
318
318
315
318
322
321
318
320
324
323
321
323
328
327
325
329
332
330
329
333
337
335
335
340
344
344
345
351
355
353
357
364
366
363
364
369
369
363
359
349
338
330
327
319
310
307
308
304
299
300
303
300
297
300
303
300
298
301
303
301
299
302
303
301
301
305
307
303
302
307
308
305
305
309
310
305
305
310
310
307
307
310
309
306
308
312
309
307
308
312
311
308
311
315
311
309
312
315
312
310
313
315
312
314
316
313
313
317
318
314
313
317
318
314
314
320
318
315
316
320
319
316
317
321
320
316
318
322
321
318
320
324
321
318
321
325
320
319
322
326
322
320
324
326
322
321
324
326
322
320
324
326
322
325
334
338
337
339
343
341
339
340
344
340
334
332
327
318
319
322
320
318
320
322
320
316
318
328
340
364
405
421
399
369
338
297
283
304
324
329
324
322
326
326
322
324
328
328
325
326
330
329
325
328
332
331
329
332
336
334
332
336
340
339
338
342
348
345
345
351
354
354
356
362
367
366
367
374
377
374
373
380
373
369
366
358
348
341
337
330
321
318
319
315
310
310
313
312
310
310
313
312
309
311
314
311
310
312
315
312
310
314
316
312
312
315
321
320
309
310
313
312
313
317
317
313
313
319
318
314
316
320
319
314
315
320
319
315
318
322
319
317
319
322
319
319
322
319
320
330
324
312
313
320
323
319
318
322
325
321
321
325
325
321
323
326
325
322
324
328
327
322
327
335
337
336
340
341
339
339
347
355
340
327
325
324
321
319
323
325
322
321
323
325
322
320
325
336
354
381
408
400
372
345
318
282
282
313
329
325
327
332
334
332
322
325
326
325
330
334
331
329
334
337
334
333
338
340
337
337
342
343
341
342
348
351
349
350
356
358
357
360
367
369
368
371
377
377
373
375
379
375
365
360
357
347
335
329
327
320
313
312
314
309
305
307
309
305
302
305
308
305
304
309
305
306
310
310
307
308
312
312
308
309
312
311
307
309
312
310
305
308
312
310
305
307
311
309
306
307
310
307
304
307
309
307
303
307
310
307
305
308
311
308
307
311
311
306
306
310
310
306
306
310
310
306
307
311
311
308
309
311
311
308
310
314
312
315
322
323
324
327
327
325
327
332
332
325
318
314
312
309
308
310
311
307
307
311
312
308
307
319
335
357
387
393
369
337
311
275
270
295
311
318
316
313
314
318
315
313
316
320
317
315
318
322
320
318
322
325
323
322
327
329
326
327
333
335
331
332
338
337
342
348
349
349
353
359
362
360
363
368
367
365
367
368
362
354
348
342
332
322
319
316
309
304
305
306
302
300
303
304
301
301
305
306
302
302
306
307
304
304
308
308
304
305
310
310
305
307
311
310
307
308
313
310
307
309
312
309
307
311
313
311
308
315
311
308
312
315
312
311
315
316
312
311
315
317
314
314
317
318
314
314
318
317
313
316
320
319
314
316
320
318
316
318
322
319
317
318
322
320
317
320
323
320
317
321
324
320
319
322
324
320
319
324
324
320
321
325
325
321
322
326
325
323
323
329
331
337
344
342
337
339
346
344
336
336
335
325
317
319
321
318
317
321
323
318
317
319
320
324
337
368
407
417
398
371
337
292
283
311
324
323
323
325
324
321
322
327
325
322
325
329
327
325
328
331
329
328
331
334
332
332
336
338
335
335
340
342
340
342
348
349
351
357
360
359
361
369
370
369
372
376
376
372
372
371
364
352
344
340
333
322
320
319
314
309
310
313
309
306
309
311
307
306
310
313
309
308
311
313
309
310
314
313
309
310
314
315
311
312
317
318
314
315
319
317
314
316
320
317
312
316
324
326
312
315
316
314
317
319
315
314
319
321
318
317
320
322
319
318
321
322
318
318
323
322
319
319
323
324
320
320
324
323
319
320
323
322
320
322
327
326
329
322
319
318
321
329
335
334
335
336
338
337
340
342
340
333
323
321
322
319
318
322
323
319
319
323
323
320
334
360
387
401
394
372
342
314
281
284
311
327
331
327
325
328
332
330
328
331
333
330
329
332
335
332
331
335
338
335
335
340
341
338
338
344
345
342
343
349
351
349
351
358
360
358
362
370
371
369
373
378
377
373
374
375
368
359
354
349
336
327
324
314
310
311
310
306
304
306
307
303
302
305
305
303
304
308
306
304
305
311
310
305
307
311
309
306
309
312
309
307
311
313
308
304
306
309
306
304
308
311
307
306
309
311
307
305
309
310
306
306
311
310
306
307
311
310
307
307
311
310
306
308
311
310
307
313
311
309
311
313
311
308
311
315
313
310
312
315
312
310
313
315
311
310
315
317
316
319
325
330
327
323
329
333
330
328
329
323
312
310
313
311
307
309
314
312
309
310
313
310
313
330
357
385
396
379
353
321
281
268
297
313
316
320
322
317
316
321
321
318
324
325
320
321
325
325
322
324
329
328
325
327
332
332
330
334
339
338
337
340
346
343
344
350
355
355
357
362
367
364
365
369
371
368
366
368
363
352
343
340
331
320
315
314
311
304
303
306
304
300
301
305
303
301
302
307
305
301
304
308
306
303
305
306
305
308
310
306
305
309
311
307
305
308
310
307
306
309
310
306
306
311
311
307
308
311
311
307
309
313
312
307
309
313
311
308
310
314
311
309
311
314
312
310
313
316
312
310
314
316
313
312
315
316
314
312
317
318
314
314
318
318
315
315
319
320
315
320
319
315
317
320
319
316
318
321
320
318
320
323
321
318
321
325
322
321
327
333
334
336
339
340
336
337
342
342
333
329
327
322
316
316
320
321
317
319
322
319
315
315
323
334
352
387
417
406
377
347
313
280
294
318
327
324
320
323
327
323
322
326
328
325
329
330
327
328
333
335
332
332
337
338
334
335
342
342
339
342
347
348
346
349
354
355
355
360
367
366
365
370
375
374
372
375
378
373
368
367
361
350
339
335
330
322
316
317
316
311
309
311
313
308
307
311
311
307
308
312
310
308
310
314
313
310
312
314
312
314
317
315
311
314
318
315
312
316
319
315
313
316
318
313
313
317
318
314
313
319
319
315
315
319
318
313
314
318
317
314
316
320
319
315
318
321
319
317
319
322
319
317
320
322
319
318
320
322
320
317
321
322
319
318
322
323
319
319
324
324
320
324
324
320
320
323
324
321
322
325
324
321
325
338
339
329
333
340
337
335
339
345
340
334
333
329
321
318
321
323
320
319
322
323
320
319
322
323
332
356
390
410
397
376
339
299
269
287
319
326
322
324
329
328
325
327
330
328
326
330
334
332
329
332
336
332
337
339
336
335
341
348
347
335
338
344
345
347
351
355
354
358
363
365
364
367
373
374
372
373
377
376
371
370
366
357
346
340
336
328
321
320
319
314
309
311
313
308
305
308
310
307
307
311
311
309
308
311
312
308
309
313
312
308
309
312
311
308
310
312
308
309
313
310
307
309
312
309
308
310
313
310
306
308
312
309
307
310
312
308
307
311
312
309
309
313
313
308
308
313
313
310
311
313
312
309
311
315
314
310
310
314
312
310
312
315
313
311
313
316
314
311
315
320
321
324
330
333
328
326
332
335
331
327
322
311
309
313
312
309
308
313
312
308
309
313
313
317
336
366
389
381
356
335
306
266
266
302
317
315
317
320
316
315
318
322
319
318
321
323
319
318
323
326
322
322
326
330
326
327
332
332
330
331
336
337
335
337
343
344
343
347
354
355
355
359
365
363
366
369
367
362
361
359
347
336
332
326
316
309
309
307
300
299
302
302
297
296
301
302
299
299
303
302
299
299
304
304
300
303
307
304
301
302
307
305
302
305
308
304
302
305
309
305
304
306
309
306
304
308
309
306
304
308
310
306
305
309
310
308
308
311
308
309
313
312
309
310
314
312
308
311
315
314
311
314
317
315
313
316
319
316
314
316
319
316
315
318
321
317
315
319
321
317
317
321
322
319
318
322
323
320
321
328
332
333
337
341
339
335
339
344
340
332
331
327
320
315
317
320
317
315
318
320
316
317
325
335
359
397
415
393
363
336
297
278
302
323
328
323
322
325
325
322
323
328
327
324
325
330
328
325
328
333
331
329
333
337
335
333
337
341
339
338
343
347
345
346
352
356
354
355
362
365
364
366
373
374
371
373
378
376
370
367
365
356
344
337
335
319
317
318
313
308
309
313
310
305
308
312
309
307
310
314
310
307
310
312
308
308
312
314
310
310
314
316
311
311
315
315
311
310
315
315
311
312
317
315
311
313
317
315
311
312
316
314
311
315
317
314
312
315
319
315
313
316
317
313
313
317
320
315
314
319
315
315
320
319
315
316
320
320
317
317
321
320
317
318
323
322
318
320
325
322
319
321
326
324
321
323
326
324
322
326
330
330
334
342
346
341
338
342
345
343
339
340
335
324
321
324
324
320
321
325
324
321
322
326
325
330
349
382
412
410
388
362
326
289
321
330
329
330
332
327
326
331
333
329
327
332
333
329
330
335
336
334
335
339
339
336
338
342
344
346
351
345
341
343
347
354
354
353
357
365
364
364
370
375
374
372
377
378
374
372
373
370
360
352
347
341
331
323
322
320
314
313
316
319
315
304
306
307
308
314
313
309
309
314
313
310
312
317
314
310
313
317
315
311
314
317
314
313
318
324
311
305
311
314
312
311
316
318
313
313
317
318
314
315
319
317
314
315
319
318
315
317
320
317
315
317
320
318
317
326
321
312
311
318
323
320
317
321
324
321
318
323
321
324
331
337
336
334
335
338
337
338
338
334
323
318
320
318
314
317
320
318
316
317
322
318
316
329
358
382
390
377
355
326
291
267
285
311
320
323
325
323
322
326
327
324
324
328
330
326
326
330
330
328
330
333
333
332
333
338
337
334
336
342
342
344
349
349
348
352
357
358
358
363
368
367
366
370
372
369
366
367
363
352
343
338
329
319
314
313
310
304
302
304
301
298
298
302
301
298
299
303
302
299
301
304
302
301
303
307
305
302
306
308
304
303
307
308
303
302
306
308
304
302
306
308
303
304
308
304
303
307
306
303
304
309
307
304
306
309
309
304
305
309
308
304
307
311
308
306
309
312
308
306
310
312
309
307
311
313
309
309
314
315
311
310
315
316
315
315
318
318
317
319
323
324
321
327
333
329
321
318
318
314
310
313
317
315
313
315
317
314
311
316
319
330
358
393
403
383
359
331
288
269
300
321
321
321
324
323
319
320
325
324
321
323
328
327
323
326
330
329
327
330
334
332
329
334
338
336
336
339
343
341
341
347
351
349
349
356
361
360
361
367
371
368
368
372
372
368
365
365
357
346
338
335
327
315
316
311
306
306
309
305
302
304
308
306
303
306
309
307
305
308
312
308
306
310
313
311
308
312
315
310
310
314
314
309
310
314
314
309
310
315
314
311
312
316
314
310
312
317
314
311
313
317
314
312
314
317
315
312
315
318
315
313
316
319
315
313
318
315
314
318
318
315
315
320
318
314
315
320
322
321
323
326
326
324
327
331
330
329
334
340
333
326
322
321
318
315
317
320
318
317
321
323
318
316
318
319
323
341
373
409
413
390
363
330
284
280
311
325
324
325
328
327
323
325
329
328
325
327
330
328
327
333
331
329
333
337
334
334
339
339
336
337
343
346
343
343
349
352
351
353
360
363
362
363
370
371
370
371
375
374
368
365
364
356
344
337
333
325
316
314
314
310
305
307
309
305
303
306
308
305
303
307
310
307
307
309
311
308
307
312
312
309
308
312
312
311
315
313
309
311
314
312
310
311
315
312
309
312
315
313
311
313
316
313
311
314
316
312
310
313
314
311
311
315
316
312
310
315
316
312
311
315
314
311
312
317
316
312
313
318
316
312
314
318
316
313
316
319
316
315
317
320
316
314
317
321
318
316
320
322
323
326
326
324
326
331
332
330
331
338
337
330
325
324
321
316
317
322
322
318
319
322
320
317
319
321
322
331
358
395
415
399
373
344
301
272
297
324
327
325
327
329
326
325
330
331
328
328
333
334
329
329
335
336
333
334
340
339
336
339
344
344
342
350
349
347
351
357
356
356
360
366
365
365
371
375
372
371
376
378
375
371
372
367
355
345
342
335
326
322
322
319
312
311
313
312
309
311
319
317
303
303
311
311
308
311
314
313
310
313
315
313
311
315
318
314
312
315
316
313
311
314
316
312
311
314
314
311
315
315
311
312
316
315
312
313
316
316
313
315
319
316
312
314
318
316
313
315
318
315
313
315
318
316
315
317
320
317
315
318
320
320
320
323
325
323
323
328
329
326
330
337
334
326
321
321
319
313
315
320
318
315
316
321
318
316
318
320
318
325
352
396
378
355
331
296
264
280
313
321
321
325
326
323
322
327
328
324
326
330
329
326
327
331
331
329
331
335
334
331
335
339
337
335
339
344
344
342
346
351
349
349
356
361
360
361
367
371
368
367
371
372
368
364
363
355
342
334
330
323
314
309
310
307
302
304
302
299
299
302
301
298
300
304
303
301
303
307
304
302
306
309
305
303
306
307
305
303
306
308
304
303
307
307
303
303
307
307
303
303
308
308
303
304
308
307
305
305
308
307
304
306
310
309
305
307
311
307
306
307
311
309
307
310
312
309
308
311
313
309
313
315
313
313
317
319
318
318
323
323
323
328
333
328
319
315
316
312
309
313
317
314
311
313
318
315
312
314
316
321
337
367
400
397
371
348
319
275
272
306
323
321
320
323
324
321
322
325
326
322
323
329
327
323
326
332
332
327
330
335
334
332
336
339
337
341
345
344
344
350
354
352
352
358
362
362
363
368
371
368
368
373
372
365
361
360
354
342
334
330
323
316
312
313
310
305
304
307
306
302
304
308
306
303
306
309
306
305
309
312
308
306
310
312
309
307
311
313
310
309
313
313
309
309
313
313
309
313
313
309
310
315
314
310
311
314
312
310
313
317
314
311
314
316
314
311
314
317
315
312
316
319
316
314
317
319
316
315
318
319
315
314
319
320
315
316
320
319
317
318
323
320
317
318
322
321
318
321
327
324
320
325
331
328
326
331
336
336
335
335
332
318
320
322
319
318
322
323
319
320
323
323
318
317
329
347
371
407
418
394
356
324
287
283
306
322
330
327
323
325
330
328
324
328
332
328
326
330
333
331
329
333
336
332
332
336
338
335
336
340
343
341
341
347
348
346
349
355
358
357
360
366
367
366
370
373
370
371
374
369
361
356
351
340
331
326
323
316
310
312
312
306
303
308
309
305
305
308
310
306
305
310
310
306
307
312
313
309
310
315
313
309
310
314
313
310
311
314
312
309
311
315
312
309
312
314
312
310
313
316
313
312
315
316
312
312
315
316
312
315
318
315
314
318
318
314
315
319
317
314
316
320
318
315
318
321
319
315
318
321
320
317
319
322
319
317
320
323
321
317
321
323
319
319
323
326
325
325
329
330
328
328
332
334
333
338
342
337
328
324
325
321
317
319
324
323
320
321
324
322
318
321
322
345
376
409
406
378
352
323
280
278
312
329
326
326
330
331
326
326
332
333
329
329
334
333
330
332
337
336
334
336
339
339
336
339
343
342
340
344
349
347
346
352
356
354
354
360
365
363
364
370
373
371
371
375
375
370
367
366
358
346
338
336
329
320
316
313
308
308
311
307
304
307
311
309
307
309
313
310
309
313
314
311
310
313
315
312
311
315
316
312
312
315
315
311
310
315
315
310
310
314
313
308
310
314
314
310
311
315
313
309
311
315
313
309
313
316
313
311
314
316
313
310
313
317
313
311
315
317
313
315
316
312
312
316
317
312
314
321
321
316
318
324
323
320
322
328
329
326
325
324
317
310
310
313
311
309
313
316
311
309
313
315
313
309
318
336
357
385
396
372
339
312
280
266
289
313
322
320
316
317
323
321
318
320
324
324
320
323
327
325
322
324
329
325
329
332
330
328
333
336
334
333
338
342
341
342
349
353
351
353
360
363
361
362
368
368
365
363
367
364
353
346
342
332
322
316
315
309
303
303
305
303
298
300
303
300
297
300
304
301
299
303
306
303
301
306
308
304
304
309
309
305
305
310
311
307
306
310
306
307
311
309
306
307
311
310
306
308
312
311
306
308
312
310
307
310
313
311
308
312
314
310
309
313
315
313
311
314
316
312
311
317
318
313
312
317
319
315
316
320
318
314
315
321
320
316
316
319
319
316
318
321
319
317
323
325
322
321
326
330
327
331
336
334
328
327
324
317
314
318
318
314
316
321
320
316
315
319
318
315
325
348
376
404
405
385
352
314
277
285
310
319
322
325
322
320
325
327
325
324
327
329
326
325
330
331
328
328
334
335
332
333
337
338
335
337
342
344
340
343
349
351
349
352
359
359
364
370
370
367
372
376
373
370
371
372
364
354
349
342
332
324
323
320
312
309
312
311
305
304
310
310
307
306
309
310
306
306
309
309
305
307
311
309
306
307
311
309
305
308
313
310
307
309
312
309
308
310
312
309
307
310
313
310
309
312
313
310
310
315
309
310
315
315
311
312
316
316
313
314
318
316
314
316
319
318
313
316
318
317
314
318
320
318
316
320
321
317
316
320
323
320
318
322
322
320
319
324
323
321
324
330
328
323
326
333
333
330
332
338
340
337
334
332
326
320
320
323
323
319
322
326
323
323
325
320
321
335
358
386
414
409
383
347
308
281
298
319
325
330
329
326
325
329
329
326
327
332
331
327
328
333
333
330
333
337
337
334
337
341
339
337
341
344
343
341
346
351
349
349
355
360
359
360
367
369
367
369
374
374
371
372
373
369
359
352
348
327
323
322
315
309
309
310
307
304
305
308
307
304
306
309
307
305
309
312
310
312
321
312
304
304
311
313
310
309
314
314
311
311
315
314
310
311
316
315
311
312
317
316
312
315
318
316
312
315
318
315
313
316
320
316
314
318
321
318
315
318
321
317
316
322
319
319
322
322
318
318
322
323
320
320
323
324
320
321
325
324
320
322
326
324
320
323
328
329
325
328
332
330
328
333
336
336
337
338
336
328
322
324
324
321
320
324
326
322
321
325
325
321
320
325
338
361
391
411
394
362
333
299
273
289
319
331
329
328
331
330
327
330
334
331
329
332
334
332
330
334
337
336
335
338
341
338
337
342
344
342
343
348
349
346
349
355
357
355
359
366
367
366
368
373
371
370
372
374
368
360
357
351
339
329
326
322
313
309
309
308
303
301
304
305
300
299
303
304
301
301
306
302
303
307
308
304
304
308
308
304
306
308
306
304
305
309
306
303
306
309
305
303
306
309
305
303
307
309
306
304
307
308
304
304
307
309
305
306
310
310
306
306
310
310
306
308
313
311
307
309
313
313
308
310
313
312
310
312
315
312
311
313
316
315
314
320
319
319
322
325
323
325
332
332
323
317
317
316
310
310
315
317
312
312
316
316
312
312
316
315
322
347
380
403
388
363
338
301
264
281
312
319
317
321
323
320
319
324
326
323
322
327
329
325
325
329
331
327
327
333
334
331
332
337
338
335
337
342
342
344
350
351
350
353
359
359
360
365
370
368
366
371
372
369
364
363
359
347
336
331
326
316
311
312
310
304
301
304
304
300
301
304
303
300
302
306
305
301
303
307
305
302
304
307
306
304
306
309
307
305
309
311
306
304
308
311
307
305
309
311
307
306
309
307
306
310
310
306
307
311
312
307
308
313
311
307
309
314
313
309
311
315
313
311
313
315
313
310
313
317
313
311
315
318
315
313
316
318
315
314
319
320
316
318
325
325
319
320
327
328
325
328
334
337
334
332
331
324
317
316
320
319
317
319
323
321
318
323
320
317
326
344
367
400
417
399
366
332
292
283
306
323
331
331
326
326
330
330
328
327
332
331
328
331
335
334
331
333
337
337
334
337
341
340
337
341
345
344
343
346
350
349
349
355
359
359
359
366
369
367
368
374
374
371
371
375
371
363
356
352
343
326
324
318
309
308
311
307
303
306
309
307
303
305
309
308
304
307
311
308
306
310
312
308
307
310
312
309
307
311
312
308
308
312
312
307
307
312
312
307
308
312
312
308
308
313
312
307
309
313
311
309
311
313
311
309
312
315
311
309
313
316
313
311
315
313
312
316
319
315
314
317
318
314
314
319
319
316
315
320
319
315
316
320
319
315
318
322
319
316
319
322
320
317
322
328
324
320
325
331
328
325
330
334
333
335
336
333
323
318
320
321
317
318
323
324
319
318
322
322
317
318
329
345
370
405
418
394
360
291
281
306
325
330
328
324
327
330
326
324
329
332
330
328
332
334
332
332
336
340
336
336
340
342
339
339
344
344
342
345
351
352
349
351
359
360
359
364
369
369
369
372
377
375
373
375
377
371
363
360
355
343
334
330
326
318
314
316
314
309
307
310
310
312
316
305
300
305
310
310
307
308
312
312
310
312
316
314
311
314
317
315
312
315
318
314
310
314
317
314
312
315
317
314
311
316
317
314
313
317
317
314
313
319
319
314
315
318
318
314
315
319
318
313
315
320
317
313
317
320
317
314
318
321
318
316
319
319
320
324
326
323
324
328
329
326
328
334
337
331
325
324
320
316
315
319
320
316
317
321
320
315
317
322
320
317
330
358
384
395
381
357
327
290
266
285
313
320
325
327
324
323
326
329
326
325
330
330
327
327
332
333
329
330
336
336
332
334
339
340
337
344
344
343
345
351
351
350
356
363
361
361
366
370
369
368
373
375
371
367
368
366
353
343
339
332
322
316
316
312
305
303
306
304
300
300
303
303
299
301
306
305
300
303
307
305
301
305
309
306
303
306
309
306
303
305
309
306
304
307
309
305
303
306
308
305
309
310
306
305
309
309
305
305
309
309
305
306
311
310
305
307
312
310
306
307
311
309
307
309
312
310
308
312
314
309
307
312
315
312
310
314
315
311
310
315
317
312
311
315
316
312
313
317
317
316
318
322
321
320
321
325
325
322
327
334
329
321
318
313
309
313
317
314
312
315
318
314
311
314
316
318
332
362
397
407
386
360
330
283
269
300
320
321
320
324
323
319
321
326
325
322
325
329
327
324
326
329
329
327
330
334
331
329
333
338
335
334
339
343
340
341
347
350
346
348
356
361
359
360
366
369
365
373
372
367
365
364
356
344
339
334
324
316
313
313
308
304
305
306
303
299
304
306
304
301
305
307
304
304
307
309
306
305
310
310
306
307
310
311
307
307
311
312
308
309
313
311
307
309
312
311
309
310
313
311
308
310
314
312
308
311
315
311
309
313
316
311
314
316
313
312
315
317
313
312
316
317
313
314
317
318
314
316
320
319
315
316
320
319
316
317
322
320
316
319
322
319
317
320
323
321
319
320
324
320
317
322
324
320
319
324
328
326
325
328
329
328
328
332
334
332
336
342
338
329
323
324
322
318
320
323
319
322
325
323
320
321
324
328
341
373
412
416
391
364
332
287
282
312
328
326
325
328
328
325
325
330
330
326
327
332
332
328
330
334
334
331
333
338
337
334
336
341
340
337
341
345
345
345
349
353
353
353
359
364
362
363
369
372
369
370
375
376
370
367
361
348
340
337
331
320
314
315
312
306
305
310
308
303
306
309
308
304
307
311
309
305
309
312
310
306
310
313
308
306
310
314
310
308
312
314
310
309
314
313
309
310
315
314
311
311
316
315
312
312
317
316
312
313
318
316
312
315
319
316
313
317
320
314
318
322
318
315
320
322
319
319
322
324
321
321
325
326
320
321
326
326
322
321
326
326
323
323
327
326
322
323
328
326
324
326
331
329
325
329
335
333
330
334
338
338
337
339
336
326
320
324
325
321
320
323
325
322
322
325
324
319
319
326
338
359
389
396
364
335
303
274
287
317
329
327
324
327
331
329
326
330
333
331
327
331
335
332
330
334
337
333
333
339
341
337
337
343
344
342
343
349
350
347
349
356
357
356
360
367
368
367
370
374
374
371
373
376
371
364
360
355
344
333
330
326
316
311
312
312
306
306
306
303
301
305
306
302
302
306
307
302
303
307
307
304
306
310
308
304
306
310
307
305
307
310
306
303
306
310
306
303
306
308
305
303
307
308
304
303
308
309
304
303
308
310
306
305
309
310
306
305
309
309
305
306
310
310
306
308
312
310
306
309
313
307
312
317
315
311
315
320
316
315
319
323
322
324
325
322
312
308
309
309
306
306
309
311
306
306
311
311
307
306
313
325
345
376
396
376
345
321
289
260
277
307
318
317
314
317
320
318
316
320
323
320
318
322
324
321
321
324
327
324
324
329
330
328
329
335
331
334
339
340
339
342
349
350
349
353
360
361
360
364
369
366
363
366
368
362
354
350
345
332
322
319
316
307
301
304
305
299
298
301
302
298
297
302
303
300
300
305
304
302
305
308
308
304
307
311
309
306
308
312
309
304
307
311
308
306
309
312
308
309
312
309
307
312
315
310
307
313
315
310
309
313
315
310
310
316
315
310
311
314
313
310
312
317
316
312
313
318
315
312
315
318
316
314
317
319
315
313
318
320
317
314
318
321
317
315
320
322
318
316
321
322
318
318
322
323
321
325
329
327
323
327
332
328
332
341
340
332
329
328
321
318
318
323
321
318
320
323
319
318
321
322
319
326
348
378
410
415
397
366
326
284
288
313
322
325
329
328
323
324
329
329
326
327
331
330
326
330
335
333
330
333
337
335
332
335
340
338
337
340
344
343
344
349
352
349
351
362
361
363
370
373
370
372
377
377
372
371
374
368
359
352
347
338
326
323
322
317
310
311
314
311
307
309
312
310
307
310
313
309
307
312
315
310
309
313
315
312
310
315
316
311
310
316
316
312
312
317
317
312
312
317
316
310
314
319
316
312
314
319
317
315
319
316
313
318
321
317
315
320
322
317
315
320
321
318
318
322
322
318
318
323
324
320
320
325
325
321
320
325
324
321
323
327
324
322
324
327
324
321
324
327
323
321
324
326
324
322
327
332
329
327
331
334
333
332
336
338
335
339
342
338
327
322
325
320
321
325
325
320
321
325
322
318
320
326
335
355
389
415
400
370
344
312
277
288
320
331
328
326
330
332
328
327
331
333
330
329
333
334
331
332
336
337
334
334
339
339
336
338
343
343
340
343
349
348
346
350
355
356
356
361
366
365
366
370
374
371
371
377
370
365
362
357
344
335
331
328
318
313
314
311
306
306
309
307
302
304
308
308
305
306
309
308
305
307
312
309
306
310
313
310
308
311
313
310
308
313
315
311
308
313
314
310
308
311
312
309
308
313
314
308
309
313
312
308
309
313
313
309
308
313
312
310
315
313
309
312
315
312
310
312
315
313
310
312
316
312
313
318
319
315
315
322
321
318
319
325
329
327
324
324
318
311
310
313
312
309
311
315
312
309
312
316
314
310
315
330
351
375
391
378
349
321
291
267
280
306
319
320
317
316
321
323
320
319
323
321
322
326
326
322
324
329
330
326
328
333
332
328
331
336
336
334
338
344
342
342
347
353
352
353
359
364
363
364
368
372
368
366
368
366
355
347
342
334
322
316
315
310
302
301
304
301
296
296
300
298
295
297
302
299
296
299
304
300
298
303
305
303
301
306
304
301
305
307
304
302
306
307
304
304
307
308
303
303
307
308
303
303
307
307
302
302
306
307
305
305
309
307
303
305
310
308
305
308
311
307
305
309
312
310
308
312
313
309
308
312
315
310
310
313
316
313
312
316
317
314
314
317
317
314
315
320
320
316
320
319
315
317
321
320
320
323
326
324
324
327
331
330
328
334
339
333
327
325
322
317
316
320
322
318
316
320
322
318
316
319
319
323
339
372
407
414
394
368
333
288
282
311
324
324
326
329
326
323
326
329
326
324
329
331
328
326
331
333
330
329
334
333
333
337
339
337
338
343
344
342
344
350
350
348
353
358
361
360
363
369
370
368
370
375
373
368
369
368
359
348
343
337
327
319
319
317
310
307
309
310
304
304
307
308
304
305
310
310
305
306
310
309
305
305
310
309
305
307
312
309
307
309
313
311
308
315
311
307
311
314
311
308
311
314
310
309
313
315
311
309
314
315
311
311
314
315
312
312
316
317
313
312
316
315
312
314
317
316
312
314
319
317
314
316
319
317
315
318
321
317
316
320
321
317
316
320
323
318
317
321
323
319
318
323
323
321
321
324
324
322
326
325
320
321
327
325
322
323
326
325
323
328
335
335
333
339
346
344
339
344
346
341
337
338
333
323
320
323
325
321
320
325
326
320
320
322
325
331
350
385
417
410
387
361
323
281
292
321
328
326
327
330
328
326
329
333
330
328
331
334
333
332
335
334
334
338
340
338
338
342
344
341
342
348
350
348
349
355
357
355
358
366
368
367
370
376
377
376
378
382
380
375
375
372
362
352
346
342
332
323
322
321
315
311
314
315
309
308
313
313
309
310
313
314
310
309
314
314
309
311
316
314
310
312
317
314
309
316
315
311
313
316
312
311
314
317
315
312
314
317
314
312
315
318
313
310
315
316
312
312
317
316
312
314
318
316
312
313
319
319
314
315
319
318
314
317
319
318
314
316
321
318
315
317
320
318
316
320
322
317
316
320
322
318
317
320
322
318
319
327
331
329
336
337
332
333
337
337
330
327
326
318
312
314
317
315
312
314
317
315
312
315
316
319
335
367
397
392
366
342
315
273
262
295
320
319
317
322
323
319
319
324
325
321
322
326
327
322
323
329
329
324
327
332
331
328
332
336
335
333
337
341
340
340
344
348
349
355
360
360
361
367
370
368
369
372
373
368
365
362
354
341
332
329
322
313
309
310
307
301
301
304
301
297
298
302
301
298
301
305
302
299
303
305
303
301
304
307
303
303
306
307
304
304
306
307
303
303
307
308
303
302
307
307
302
302
306
306
302
306
306
302
303
307
307
304
306
308
306
304
307
310
307
306
309
312
308
306
310
313
309
308
312
314
308
307
313
313
309
309
314
313
309
310
314
315
311
312
317
315
313
314
317
316
313
315
320
318
314
317
320
318
316
321
326
325
326
332
336
334
333
338
339
332
334
331
320
316
319
319
314
315
319
318
314
315
318
316
320
337
368
401
408
389
363
330
285
279
309
320
321
323
325
322
320
324
326
322
322
326
329
324
324
330
331
327
328
333
333
329
332
337
336
333
336
342
342
340
343
348
349
348
353
360
361
360
365
370
369
373
377
373
370
371
370
359
349
344
338
328
320
319
316
308
306
308
308
305
305
309
310
304
303
308
308
305
306
310
309
306
308
313
310
307
309
313
311
309
312
315
311
308
312
314
311
309
313
315
310
308
313
315
311
310
315
314
310
311
315
315
311
316
315
309
310
316
316
312
312
315
314
311
313
317
314
311
315
318
315
312
315
319
316
313
318
319
315
314
318
320
316
315
319
320
316
315
320
321
316
317
323
322
317
319
324
324
318
320
324
323
320
322
327
327
326
332
337
335
336
341
344
340
338
340
341
326
323
322
316
316
320
323
319
318
322
322
317
320
335
356
383
412
409
382
347
311
283
297
315
325
330
327
324
326
329
327
324
328
332
329
326
330
333
331
330
334
336
332
332
336
338
335
336
341
342
339
342
348
349
347
350
357
359
358
362
369
370
367
370
376
373
375
377
371
363
359
353
343
334
330
327
317
313
314
314
308
306
310
311
306
306
310
311
306
309
314
313
309
310
314
313
310
310
315
315
312
313
317
316
313
314
318
315
313
315
318
315
312
316
319
315
312
315
318
315
314
318
319
316
316
320
320
314
318
319
315
316
319
318
314
317
321
320
315
317
321
319
315
318
322
320
318
319
322
318
315
319
322
319
319
321
322
319
318
320
322
320
318
322
324
322
325
332
334
330
333
339
338
337
336
340
338
331
325
323
319
315
317
321
319
316
318
321
318
314
318
332
379
399
396
366
329
300
272
278
307
324
325
322
323
328
328
324
325
330
330
326
328
332
332
328
331
337
335
331
334
339
337
334
338
344
343
341
345
348
347
347
352
358
357
358
364
368
367
368
372
374
370
370
375
374
365
359
355
346
334
326
324
319
311
309
307
302
302
305
302
298
303
306
303
302
304
307
304
302
305
308
304
303
308
309
305
304
308
309
304
304
308
309
304
304
308
308
304
305
309
307
303
304
309
308
304
305
308
306
303
305
310
308
305
307
311
307
304
308
311
307
306
309
311
307
305
310
311
308
311
311
308
307
311
311
307
308
312
312
309
309
314
312
310
315
319
316
314
318
322
319
317
324
331
329
321
318
315
309
305
308
311
308
307
311
313
308
307
312
312
308
316
338
366
390
387
367
339
305
268
272
301
312
315
319
317
314
316
322
320
316
319
323
318
321
326
323
320
325
329
326
324
329
332
330
331
335
337
334
336
342
345
343
346
352
354
353
357
364
365
363
365
370
369
365
365
367
358
347
341
337
327
317
315
314
307
302
304
306
302
299
303
305
300
299
303
305
301
302
306
308
304
302
308
308
305
306
310
306
307
310
310
306
308
312
310
307
309
313
311
308
310
314
312
310
312
315
312
310
313
315
311
311
315
316
312
311
315
316
313
313
318
319
314
315
319
318
314
316
320
320
316
318
321
320
316
318
322
319
316
318
322
319
317
320
323
321
319
322
325
319
323
325
321
320
324
325
322
325
333
334
330
331
341
342
337
340
344
341
335
335
334
326
319
319
322
320
317
320
323
320
315
318
323
329
344
379
414
408
382
355
320
279
288
317
327
324
322
326
327
323
324
328
327
325
325
330
329
325
328
333
332
329
332
337
333
337
342
340
338
342
347
345
343
348
353
352
353
359
363
362
364
371
374
372
373
378
378
372
369
368
362
350
341
337
329
319
315
317
313
307
306
311
309
304
305
310
306
305
308
311
308
306
310
312
308
307
311
314
310
309
312
315
312
310
316
316
311
310
315
312
312
317
316
312
313
316
316
312
313
317
315
311
314
317
313
311
315
319
316
313
316
319
315
313
318
320
317
315
319
320
316
314
319
319
315
315
320
319
317
317
322
322
317
319
323
321
318
321
324
322
319
322
325
323
320
323
326
323
321
324
326
322
327
332
332
333
338
343
341
340
344
344
339
337
341
337
326
321
324
323
320
322
326
323
320
322
325
322
325
344
374
405
413
395
370
336
290
282
312
326
327
330
333
329
327
333
335
330
328
333
335
333
332
337
338
335
335
341
342
337
339
346
346
342
345
352
347
350
356
356
355
360
366
365
364
371
376
374
373
378
382
377
375
376
