timestmp;smpleCnt;grnCnt;led2;led3;grn2Cnt;irCnt;redCnt;hr3;rr5;spo2
11:31:36.479935;58;166209;121478;130357;212657;524159;524159;60.0;0.0;0.0
11:31:36.490263;59;166137;121539;130396;212514;524159;524159;60.0;0.0;0.0
11:31:36.499816;60;166268;121609;130446;212609;524159;524159;60.0;0.0;0.0
11:31:36.509903;61;166359;121624;130455;212663;524159;524159;60.0;0.0;0.0
11:31:36.514909;62;166279;121598;130432;212548;524159;524159;60.0;0.0;0.0
11:31:36.680170;63;166125;121569;130408;212343;524159;524159;60.0;0.0;0.0
11:31:36.690308;64;166003;121565;130412;212190;524159;524159;60.0;0.0;0.0
11:31:36.699842;65;165984;121589;130423;212150;524159;524159;60.0;0.0;0.0
11:31:36.699842;66;166046;121625;130450;212225;524159;524159;60.0;0.0;0.0
11:31:36.709987;67;166197;121670;130482;212409;524159;524159;60.0;0.0;0.0
11:31:36.879936;68;166399;121724;130520;212670;524159;524159;60.0;0.0;0.0
11:31:36.890208;69;166608;121764;130543;212960;524159;524159;60.0;0.0;0.0
11:31:36.899986;70;166832;121801;130571;213264;524159;524159;60.0;0.0;0.0
11:31:36.899986;71;166985;121799;130570;213490;524159;524159;60.0;0.0;0.0
11:31:36.910112;72;166666;121656;130441;213125;524159;524159;60.0;0.0;0.0
11:31:37.089861;73;165901;121478;130332;212214;524159;524159;60.0;0.0;0.0
11:31:37.089861;74;165202;121414;130296;211370;524159;524159;60.0;0.0;0.0
11:31:37.099814;75;164875;121431;130309;210959;524159;524159;60.0;0.0;0.0
11:31:37.110039;76;164896;121502;130360;210958;524159;524159;60.0;0.0;0.0
11:31:37.110039;77;165102;121571;130415;211200;524159;524159;60.0;0.0;0.0
11:31:37.280036;78;165233;121578;130412;211363;524159;524159;60.0;0.0;0.0
11:31:37.289985;79;165187;121547;130377;211355;524159;524159;60.0;0.0;0.0
11:31:37.300042;80;165105;121526;130370;211280;524159;524159;60.0;0.0;0.0
11:31:37.310114;81;165058;121527;130369;211236;524159;524159;60.0;0.0;0.0
11:31:37.320184;82;165091;121543;130375;211294;524159;524159;60.0;0.0;0.0
11:31:37.485313;83;165202;121587;130412;211458;524159;524159;60.0;0.0;0.0
11:31:37.490370;84;165376;121636;130445;211698;524159;524159;60.0;0.0;0.0
11:31:37.500123;85;165590;121677;130479;211996;524159;524159;60.0;0.0;0.0
11:31:37.505131;86;165839;121719;130505;212318;524159;524159;60.0;0.0;0.0
11:31:37.510183;87;166041;121723;130505;212586;524159;524159;60.0;0.0;0.0
11:31:37.685017;88;165749;121560;130376;212259;524159;524159;60.0;0.0;0.0
11:31:37.690080;89;164958;121383;130260;211319;524159;524159;59.0;0.0;0.0
11:31:37.699990;90;164228;121307;130216;210445;524159;524159;59.0;0.0;0.0
11:31:37.709903;91;163833;121317;130226;209964;524159;524159;59.0;0.0;0.0
11:31:37.709903;92;163796;121374;130274;209884;524159;524159;59.0;0.0;0.0
11:31:37.884962;93;163964;121445;130315;210042;524159;524159;59.0;0.0;0.0
11:31:37.895029;94;164082;121449;130327;210128;524159;524159;59.0;0.0;0.0
11:31:37.905103;95;164013;121422;130305;210010;524159;524159;59.0;757.3;0.0
11:31:37.910144;96;163873;121398;130292;209810;524159;524159;59.0;0.0;0.0
11:31:37.919947;97;163785;121400;130298;209664;524159;524159;59.0;0.0;0.0
11:31:38.079945;98;163803;121424;130317;209626;524159;524159;59.0;0.0;0.0
11:31:38.094952;99;163891;121463;130355;209685;524159;524159;59.0;0.0;0.0
11:31:38.105006;100;164057;121515;130391;209846;524159;524159;59.0;0.0;0.0
11:31:38.110058;101;164239;121557;130425;210035;524159;524159;59.0;0.0;0.0
11:31:38.110058;102;164455;121601;130442;210274;524159;524159;59.0;0.0;0.0
11:31:38.280119;103;164348;121497;130374;210134;524159;524159;59.0;0.0;0.0
11:31:38.290223;104;163522;121277;130218;209126;524159;524159;59.0;0.0;0.0
11:31:38.300073;105;162475;121129;130118;207830;524159;524159;59.0;0.0;0.0
11:31:38.310064;106;161740;121086;130097;206893;524159;524159;59.0;0.0;0.0
11:31:38.310064;107;161401;121103;130122;206421;524159;524159;59.0;0.0;0.0
11:31:38.479830;108;161354;121148;130158;206313;524159;524159;59.0;0.0;0.0
11:31:38.489982;109;161412;121174;130182;206317;524159;524159;59.0;0.0;0.0
11:31:38.500114;110;161371;121158;130154;206233;524159;524159;59.0;0.0;0.0
11:31:38.510059;111;161195;121115;130125;206004;524159;524159;59.0;0.0;0.0
11:31:38.510059;112;161022;121100;130115;205789;524159;524159;59.0;0.0;0.0
11:31:38.679915;113;160962;121111;130115;205692;524159;524159;59.0;718.4;0.0
11:31:38.700312;114;161001;121131;130130;205732;524159;524159;59.0;0.0;0.0
11:31:38.710175;115;161131;121166;130155;205884;524159;524159;59.0;0.0;0.0
11:31:38.720269;116;161297;121204;130186;206085;524159;524159;59.0;0.0;0.0
11:31:38.730318;117;161494;121232;130198;206322;524159;524159;59.0;0.0;0.0
11:31:38.880307;118;161660;121234;130204;206547;524159;524159;59.0;0.0;0.0
11:31:38.890346;119;161388;121087;130084;206230;524159;524159;59.0;0.0;0.0
11:31:38.899970;120;160367;120842;129908;205045;524159;524159;59.0;0.0;0.0
11:31:38.910332;121;159273;120692;129815;203751;524159;524159;59.0;0.0;0.0
11:31:38.910332;122;158559;120643;129785;202873;524159;524159;59.0;0.0;0.0
11:31:39.080194;123;158214;120639;129785;202404;524159;524159;59.0;0.0;0.0
11:31:39.089910;124;158145;120664;129801;202257;524159;524159;59.0;0.0;0.0
11:31:39.100114;125;158183;120670;129799;202255;524159;524159;59.0;0.0;0.0
11:31:39.109889;126;158096;120634;129771;202149;524159;524159;59.0;0.0;0.0
11:31:39.109889;127;157909;120600;129744;201919;524159;524159;59.0;0.0;0.0
11:31:39.280202;128;157761;120577;129738;201743;524159;524159;59.0;0.0;0.0
11:31:39.290329;129;157732;120593;129735;201727;524159;524159;59.0;688.2;0.0
11:31:39.300039;130;157801;120613;129748;201823;524159;524159;59.0;0.0;0.0
11:31:39.310328;131;157963;120636;129771;202027;524159;524159;59.0;0.0;0.0
11:31:39.310328;132;158156;120669;129782;202276;524159;524159;59.0;0.0;0.0
11:31:39.480002;133;158362;120691;129798;202559;524159;524159;59.0;0.0;0.0
11:31:39.490233;134;158564;120699;129796;202814;524159;524159;59.0;0.0;0.0
11:31:39.500137;135;158495;120600;129719;202762;524159;524159;59.0;0.0;0.0
11:31:39.500137;136;157703;120380;129560;201864;524159;524159;59.0;0.0;0.0
11:31:39.510072;137;156642;120214;129464;200642;524159;524159;59.0;0.0;0.0
11:31:39.679992;138;155840;120157;129429;199735;524159;524159;59.0;0.0;0.0
11:31:39.690053;139;155459;120141;129430;199238;524159;524159;61.0;0.0;0.0
11:31:39.700220;140;155374;120170;129450;199093;524159;524159;61.0;0.0;0.0
11:31:39.709946;141;155430;120184;129459;199109;524159;524159;61.0;0.0;0.0
11:31:39.709946;142;155372;120148;129439;199033;524159;524159;61.0;0.0;0.0
11:31:39.890080;143;155204;120114;129415;198833;524159;524159;61.0;0.0;0.0
11:31:39.900100;144;155081;120088;129400;198672;524159;524159;63.0;0.0;0.0
11:31:39.910276;145;155065;120101;129401;198639;524159;524159;63.0;0.0;0.0
11:31:39.910276;146;155157;120118;129411;198743;524159;524159;63.0;642.3;0.0
11:31:39.919958;147;155335;120148;129434;198964;524159;524159;63.0;0.0;0.0
11:31:40.090123;148;155542;120176;129453;199234;524159;524159;63.0;0.0;0.0
11:31:40.110088;149;155755;120211;129461;199530;524159;524159;64.0;0.0;0.0
11:31:40.110088;150;155946;120214;129475;199802;524159;524159;64.0;0.0;0.0
11:31:40.110088;151;155787;120103;129378;199653;524159;524159;64.0;0.0;0.0
11:31:40.119872;152;154987;119899;129231;198751;524159;524159;64.0;0.0;0.0
11:31:40.289845;153;154090;119766;129158;197685;524159;524159;64.0;0.0;0.0
11:31:40.289845;154;153541;119728;129138;196997;524159;524159;66.0;0.0;0.0
11:31:40.299985;155;153353;119743;129142;196718;524159;524159;66.0;0.0;0.0
11:31:40.310024;156;153419;119783;129172;196750;524159;524159;66.0;0.0;0.0
11:31:40.310024;157;153521;119788;129168;196850;524159;524159;66.0;0.0;0.0
11:31:40.489790;158;153517;119763;129142;196841;524159;524159;66.0;0.0;0.0
11:31:40.489790;159;153420;119734;129135;196753;524159;524159;67.0;0.0;0.0
11:31:40.499823;160;153386;119726;129128;196736;524159;524159;67.0;0.0;0.0
11:31:40.510049;161;153473;119748;129138;196867;524159;524159;67.0;619.3;0.0
11:31:40.510049;162;153635;119777;129160;197090;524159;524159;67.0;0.0;0.0
11:31:40.690184;163;153851;119811;129184;197394;524159;524159;67.0;0.0;0.0
11:31:40.690184;164;154102;119840;129194;197764;524159;524159;68.0;0.0;0.0
11:31:40.700171;165;154339;119872;129213;198130;524159;524159;68.0;0.0;0.0
11:31:40.710171;166;154595;119906;129235;198501;524159;524159;68.0;0.0;0.0
11:31:40.710171;167;154673;119859;129189;198661;524159;524159;68.0;0.0;0.0
11:31:40.890017;168;154118;119665;129056;198079;524159;524159;68.0;0.0;0.0
11:31:40.890017;169;153219;119508;128952;197064;524159;524159;69.0;0.0;0.0
11:31:40.899869;170;152567;119447;128922;196318;524159;524159;69.0;0.0;0.0
11:31:40.909927;171;152256;119455;128938;195931;524159;524159;69.0;0.0;0.0
11:31:40.909927;172;152278;119490;128950;195934;524159;524159;69.0;0.0;0.0
11:31:41.090241;173;152430;119514;128965;196098;524159;524159;69.0;0.0;0.0
11:31:41.105033;174;152481;119498;128960;196184;524159;524159;70.0;0.0;0.0
11:31:41.105033;175;152416;119475;128930;196129;524159;524159;70.0;0.0;0.0
11:31:41.110058;176;152368;119461;128918;196116;524159;524159;70.0;0.0;0.0
11:31:41.110058;177;152434;119478;128937;196221;524159;524159;70.0;637.7;0.0
11:31:41.290059;178;152608;119513;128958;196454;524159;524159;70.0;0.0;0.0
11:31:41.290059;179;152829;119552;128985;196788;524159;524159;71.0;0.0;0.0
11:31:41.299816;180;153086;119580;128999;197176;524159;524159;71.0;0.0;0.0
11:31:41.310120;181;153353;119618;129023;197572;524159;524159;71.0;0.0;0.0
11:31:41.310120;182;153627;119647;129038;197957;524159;524159;71.0;0.0;0.0
11:31:41.489879;183;153879;119674;129057;198335;524159;524159;71.0;0.0;0.0
11:31:41.500346;184;154124;119701;129071;198708;524159;524159;72.0;0.0;0.0
11:31:41.509868;185;154393;119732;129094;199120;524159;524159;72.0;0.0;0.0
11:31:41.509868;186;154686;119772;129114;199550;524159;524159;72.0;0.0;0.0
11:31:41.520135;187;155011;119815;129146;200011;524159;524159;72.0;0.0;0.0
11:31:41.689971;188;155340;119864;129171;200499;524159;524159;72.0;0.0;0.0
11:31:41.700039;189;155681;119905;129212;200982;524159;524159;74.0;0.0;0.0
11:31:41.705044;190;155607;119784;129097;201011;524159;524159;74.0;0.0;0.0
11:31:41.710070;191;154757;119547;128933;200145;524159;524159;74.0;0.0;0.0
11:31:41.719955;192;153845;119425;128866;199124;524159;524159;74.0;0.0;0.0
11:31:41.890076;193;153296;119398;128861;198490;524159;524159;74.0;0.0;0.0
11:31:41.900162;194;153093;119415;128873;198253;524159;524159;92.0;650.0;0.0
11:31:41.910239;195;153141;119454;128892;198294;524159;524159;92.0;0.0;0.0
11:31:41.915246;196;153247;119476;128908;198416;524159;524159;92.0;0.0;0.0
11:31:41.920268;197;153230;119446;128885;198423;524159;524159;92.0;0.0;0.0
11:31:42.090031;198;153141;119427;128870;198341;524159;524159;92.0;0.0;0.0
11:31:42.090031;199;153100;119426;128864;198338;524159;524159;92.0;0.0;0.0
11:31:42.099974;200;153164;119453;128883;198472;524159;524159;92.0;0.0;0.0
11:31:42.109890;201;153340;119498;128913;198725;524159;524159;92.0;0.0;0.0
11:31:42.109890;202;153567;119538;128944;199062;524159;524159;92.0;0.0;0.0
11:31:42.289975;203;153822;119572;128967;199444;524159;524159;92.0;0.0;0.0
11:31:42.289975;204;154082;119604;128980;199840;524159;524159;92.0;0.0;0.0
11:31:42.300011;205;154339;119628;129002;200228;524159;524159;92.0;0.0;0.0
11:31:42.309906;206;154584;119651;129012;200593;524159;524159;92.0;0.0;0.0
11:31:42.319969;207;154846;119686;129031;200974;524159;524159;92.0;0.0;0.0
11:31:42.490294;208;155145;119723;129054;201389;524159;524159;92.0;0.0;0.0
11:31:42.490294;209;155436;119773;129090;201832;524159;524159;92.0;0.0;0.0
11:31:42.500160;210;155768;119822;129121;202299;524159;524159;92.0;0.0;0.0
11:31:42.510377;211;156122;119868;129154;202785;524159;524159;92.0;0.0;0.0
11:31:42.520011;212;156166;119783;129082;202930;524159;524159;92.0;0.0;0.0
11:31:42.689856;213;155552;119576;128935;202309;524159;524159;92.0;0.0;0.0
11:31:42.689856;214;154808;119467;128873;201477;524159;524159;91.0;0.0;0.0
11:31:42.700010;215;154373;119449;128870;200994;524159;524159;91.0;0.0;0.0
11:31:42.715132;216;154237;119470;128888;200839;524159;524159;91.0;0.0;0.0
11:31:42.720183;217;154346;119513;128919;200950;524159;524159;91.0;0.0;0.0
11:31:42.890374;218;154529;119548;128931;201176;524159;524159;91.0;0.0;0.0
11:31:42.899982;219;154598;119537;128925;201285;524159;524159;91.0;0.0;0.0
11:31:42.910052;220;154561;119507;128905;201292;524159;524159;91.0;0.0;0.0
11:31:42.920104;221;154540;119520;128905;201339;524159;524159;91.0;0.0;0.0
11:31:42.930247;222;154648;119542;128928;201537;524159;524159;91.0;0.0;0.0
11:31:43.090184;223;154818;119586;128958;201815;524159;524159;91.0;0.0;0.0
11:31:43.099896;224;155059;119632;128992;202190;524159;524159;91.0;0.0;0.0
11:31:43.099896;225;155345;119675;129017;202595;524159;524159;91.0;0.0;0.0
11:31:43.110083;226;155644;119713;129045;203035;524159;524159;91.0;660.4;0.0
11:31:43.119993;227;155926;119743;129067;203464;524159;524159;91.0;0.0;0.0
11:31:43.290211;228;156198;119777;129077;203877;524159;524159;91.0;0.0;0.0
11:31:43.300124;229;156462;119808;129103;204291;524159;524159;91.0;0.0;0.0
11:31:43.310094;230;156767;119851;129134;204741;524159;524159;91.0;0.0;0.0
11:31:43.315100;231;157097;119906;129169;205224;524159;524159;91.0;0.0;0.0
11:31:43.320140;232;157420;119942;129195;205689;524159;524159;91.0;0.0;0.0
11:31:43.489995;233;157399;119842;129120;205764;524159;524159;91.0;0.0;0.0
11:31:43.499855;234;156837;119679;129006;205196;524159;524159;91.0;0.0;0.0
11:31:43.499855;235;156260;119599;128957;204569;524159;524159;91.0;0.0;0.0
11:31:43.510305;236;155979;119616;128981;204283;524159;524159;91.0;0.0;0.0
11:31:43.519969;237;156002;119660;129022;204337;524159;524159;91.0;0.0;0.0
11:31:43.690278;238;156199;119727;129066;204605;524159;524159;91.0;0.0;0.0
11:31:43.700090;239;156387;119753;129077;204891;524159;524159;91.0;0.0;0.0
11:31:43.700090;240;156435;119741;129075;205009;524159;524159;91.0;0.0;0.0
11:31:43.710211;241;156407;119732;129073;205062;524159;524159;91.0;0.0;0.0
11:31:43.720171;242;156430;119752;129084;205171;524159;524159;91.0;0.0;0.0
11:31:43.890194;243;156548;119796;129114;205377;524159;524159;91.0;0.0;0.0
11:31:43.899813;244;156760;119842;129156;205693;524159;524159;91.0;0.0;0.0
11:31:43.899813;245;157011;119904;129199;206043;524159;524159;91.0;0.0;0.0
11:31:43.920294;246;157272;119957;129230;206423;524159;524159;91.0;0.0;0.0
11:31:43.920294;247;157544;119994;129272;206797;524159;524159;91.0;0.0;0.0
11:31:44.090237;248;157808;120028;129295;207158;524159;524159;91.0;0.0;0.0
11:31:44.100062;249;158056;120074;129318;207508;524159;524159;91.0;896.0;0.0
11:31:44.100062;250;158341;120117;129358;207890;524159;524159;91.0;0.0;0.0
11:31:44.109808;251;158551;120125;129365;208181;524159;524159;91.0;0.0;0.0
11:31:44.119800;252;158330;120007;129272;207961;524159;524159;91.0;0.0;0.0
11:31:44.289908;253;157726;119867;129185;207275;524159;524159;91.0;0.0;0.0
11:31:44.300058;254;157241;119836;129172;206705;524159;524159;91.0;0.0;0.0
11:31:44.300058;255;157048;119874;129196;206457;524159;524159;91.0;0.0;0.0
11:31:44.309797;256;157129;119942;129249;206523;524159;524159;91.0;0.0;0.0
11:31:44.319799;257;157336;120000;129290;206749;524159;524159;91.0;0.0;0.0
11:31:44.490017;258;157483;120006;129293;206910;524159;524159;91.0;0.0;0.0
11:31:44.500215;259;157476;119998;129280;206924;524159;524159;91.0;0.0;0.0
11:31:44.500215;260;157458;119989;129283;206911;524159;524159;91.0;0.0;0.0
11:31:44.509997;261;157509;120020;129310;206963;524159;524159;91.0;0.0;0.0
11:31:44.520188;262;157684;120062;129328;207150;524159;524159;91.0;0.0;0.0
11:31:44.690246;263;157906;120115;129369;207417;524159;524159;91.0;0.0;0.0
11:31:44.700003;264;158158;120165;129403;207745;524159;524159;91.0;0.0;0.0
11:31:44.710228;265;158437;120209;129435;208088;524159;524159;91.0;0.0;0.0
11:31:44.710228;266;158704;120251;129459;208449;524159;524159;91.0;0.0;0.0
11:31:44.719950;267;158970;120286;129478;208807;524159;524159;91.0;0.0;0.0
11:31:44.895252;268;159250;120319;129508;209147;524159;524159;91.0;0.0;0.0
11:31:44.904802;269;159522;120356;129526;209470;524159;524159;91.0;0.0;0.0
11:31:44.914861;270;159825;120402;129565;209838;524159;524159;91.0;0.0;0.0
11:31:44.919898;271;159927;120355;129513;209984;524159;524159;91.0;886.8;0.0
11:31:44.919898;272;159389;120144;129371;209374;524159;524159;91.0;0.0;0.0
11:31:45.089803;273;158549;120003;129277;208391;524159;524159;91.0;0.0;0.0
11:31:45.099954;274;157937;119974;129270;207655;524159;524159;91.0;0.0;0.0
11:31:45.099954;275;157637;119988;129281;207265;524159;524159;91.0;0.0;0.0
11:31:45.110031;276;157588;120026;129312;207158;524159;524159;91.0;0.0;0.0
11:31:45.119999;277;157678;120067;129337;207211;524159;524159;91.0;0.0;0.0
11:31:45.300082;278;157685;120065;129343;207217;524159;524159;91.0;0.0;0.0
11:31:45.310229;279;157583;120037;129321;207083;524159;524159;91.0;0.0;0.0
11:31:45.319872;280;157458;120034;129317;206922;524159;524159;91.0;0.0;0.0
11:31:45.329783;281;157449;120051;129330;206895;524159;524159;91.0;0.0;0.0
11:31:45.340094;282;157550;120086;129355;206993;524159;524159;91.0;0.0;0.0
11:31:45.489937;283;157732;120129;129385;207180;524159;524159;91.0;0.0;0.0
11:31:45.499845;284;157967;120173;129414;207441;524159;524159;91.0;0.0;0.0
11:31:45.509791;285;158195;120212;129437;207704;524159;524159;91.0;0.0;0.0
11:31:45.509791;286;158434;120241;129460;208002;524159;524159;91.0;0.0;0.0
11:31:45.519772;287;158639;120270;129477;208293;524159;524159;91.0;0.0;0.0
11:31:45.689988;288;158840;120298;129496;208559;524159;524159;91.0;0.0;0.0
11:31:45.700014;289;159051;120332;129515;208835;524159;524159;89.0;0.0;0.0
11:31:45.700014;290;159277;120372;129546;209135;524159;524159;89.0;0.0;0.0
11:31:45.709961;291;159531;120422;129567;209476;524159;524159;89.0;828.8;0.0
11:31:45.720180;292;159799;120466;129608;209837;524159;524159;89.0;0.0;0.0
11:31:45.890367;293;159831;120392;129544;209923;524159;524159;89.0;0.0;0.0
11:31:45.899925;294;159179;120179;129389;209182;524159;524159;87.0;0.0;0.0
11:31:45.910022;295;158239;120031;129303;208088;524159;524159;87.0;0.0;0.0
11:31:45.910022;296;157583;119994;129294;207294;524159;524159;87.0;0.0;0.0
11:31:45.919815;297;157258;120009;129307;206855;524159;524159;87.0;0.0;0.0
11:31:46.090276;298;157178;120048;129339;206702;524159;524159;87.0;0.0;0.0
11:31:46.100047;299;157237;120075;129362;206708;524159;524159;86.0;0.0;0.0
11:31:46.109882;300;157215;120073;129350;206644;524159;524159;86.0;0.0;0.0
11:31:46.109882;301;157066;120045;129329;206440;524159;524159;86.0;0.0;0.0
11:31:46.119809;302;156922;120032;129327;206225;524159;524159;86.0;0.0;0.0
11:31:46.300021;303;156900;120060;129345;206141;524159;524159;86.0;0.0;0.0
11:31:46.310119;304;156975;120091;129365;206179;524159;524159;84.0;0.0;0.0
11:31:46.320233;305;157121;120125;129391;206313;524159;524159;84.0;0.0;0.0
11:31:46.320233;306;157334;120170;129425;206524;524159;524159;84.0;0.0;0.0
11:31:46.329779;307;157535;120201;129443;206760;524159;524159;84.0;0.0;0.0
11:31:46.490126;308;157735;120231;129465;206987;524159;524159;84.0;0.0;0.0
11:31:46.500026;309;157921;120262;129476;207203;524159;524159;83.0;0.0;0.0
11:31:46.510070;310;158107;120281;129489;207433;524159;524159;83.0;747.3;0.0
11:31:46.510070;311;158316;120316;129520;207693;524159;524159;83.0;0.0;0.0
11:31:46.520087;312;158546;120358;129549;207982;524159;524159;83.0;0.0;0.0
11:31:46.699930;313;158801;120402;129574;208287;524159;524159;83.0;0.0;0.0
11:31:46.709956;314;159062;120450;129608;208614;524159;524159;82.0;0.0;0.0
11:31:46.720193;315;159342;120501;129643;208963;524159;524159;82.0;0.0;0.0
11:31:46.720193;316;159609;120531;129660;209315;524159;524159;82.0;0.0;0.0
11:31:46.729812;317;159493;120397;129563;209217;524159;524159;82.0;0.0;0.0
11:31:46.889931;318;158687;120180;129403;208279;524159;524159;82.0;0.0;0.0
11:31:46.899839;319;157785;120066;129342;207228;524159;524159;80.0;0.0;0.0
11:31:46.910026;320;157201;120045;129345;206523;524159;524159;80.0;0.0;0.0
11:31:46.915032;321;156934;120063;129365;206158;524159;524159;80.0;0.0;0.0
11:31:46.920072;322;156926;120122;129394;206072;524159;524159;80.0;0.0;0.0
11:31:47.090061;323;156956;120136;129410;206063;524159;524159;80.0;0.0;0.0
11:31:47.100243;324;156882;120115;129397;205946;524159;524159;79.0;0.0;0.0
11:31:47.109771;325;156693;120075;129371;205692;524159;524159;79.0;0.0;0.0
11:31:47.109771;326;156542;120074;129375;205472;524159;524159;79.0;0.0;0.0
11:31:47.119865;327;156530;120094;129386;205401;524159;524159;79.0;0.0;0.0
11:31:47.289992;328;156607;120131;129406;205459;524159;524159;79.0;0.0;0.0
11:31:47.300045;329;156765;120169;129440;205626;524159;524159;78.0;0.0;0.0
11:31:47.310284;330;156953;120212;129472;205846;524159;524159;78.0;793.1;0.0
11:31:47.310284;331;157146;120247;129487;206075;524159;524159;78.0;0.0;0.0
11:31:47.320114;332;157330;120273;129511;206300;524159;524159;78.0;0.0;0.0
11:31:47.489915;333;157498;120293;129525;206505;524159;524159;78.0;0.0;0.0
11:31:47.504883;334;157665;120318;129546;206722;524159;524159;77.0;0.0;0.0
11:31:47.509914;335;157848;120350;129565;206962;524159;524159;77.0;0.0;0.0
11:31:47.514922;336;158059;120387;129593;207230;524159;524159;77.0;0.0;0.0
11:31:47.524982;337;158303;120432;129626;207537;524159;524159;77.0;0.0;0.0
11:31:47.700246;338;158551;120478;129655;207866;524159;524159;77.0;0.0;0.0
11:31:47.700246;339;158817;120526;129690;208227;524159;524159;79.0;0.0;0.0
11:31:47.709829;340;159104;120572;129717;208587;524159;524159;79.0;0.0;0.0
11:31:47.709829;341;159145;120491;129651;208678;524159;524159;79.0;0.0;0.0
11:31:47.725159;342;158480;120278;129502;207903;524159;524159;79.0;0.0;0.0
11:31:47.889800;343;157584;120145;129422;206823;524159;524159;79.0;0.0;0.0
11:31:47.900116;344;156948;120106;129408;206043;524159;524159;80.0;0.0;0.0
11:31:47.909721;345;156671;120118;129422;205633;524159;524159;80.0;0.0;0.0
11:31:47.909721;346;156624;120165;129454;205484;524159;524159;80.0;0.0;0.0
11:31:47.919959;347;156691;120200;129476;205475;524159;524159;80.0;0.0;0.0
11:31:48.089873;348;156641;120176;129468;205356;524159;524159;80.0;0.0;0.0
11:31:48.100230;349;156467;120141;129440;205088;524159;524159;82.0;0.0;0.0
11:31:48.109847;350;156286;120126;129431;204818;524159;524159;82.0;0.0;0.0
11:31:48.119892;351;156207;120140;129441;204690;524159;524159;82.0;0.0;0.0
11:31:48.124897;352;156255;120171;129467;204701;524159;524159;82.0;876.8;0.0
11:31:48.290022;353;156392;120205;129491;204833;524159;524159;82.0;0.0;0.0
11:31:48.299950;354;156558;120248;129517;205019;524159;524159;83.0;0.0;0.0
11:31:48.310006;355;156738;120274;129531;205221;524159;524159;83.0;0.0;0.0
11:31:48.319990;356;156916;120291;129547;205437;524159;524159;83.0;0.0;0.0
11:31:48.319990;357;157065;120312;129561;205646;524159;524159;83.0;0.0;0.0
11:31:48.499843;358;157220;120333;129576;205850;524159;524159;83.0;0.0;0.0
11:31:48.504851;359;157421;120366;129594;206095;524159;524159;84.0;0.0;0.0
11:31:48.509885;360;157629;120396;129618;206384;524159;524159;84.0;0.0;0.0
11:31:48.520021;361;157850;120434;129645;206705;524159;524159;84.0;0.0;0.0
11:31:48.520021;362;158100;120473;129672;207043;524159;524159;84.0;0.0;0.0
11:31:48.700015;363;158371;120521;129714;207429;524159;524159;84.0;0.0;0.0
11:31:48.720250;364;158656;120568;129742;207826;524159;524159;84.0;0.0;0.0
11:31:48.725256;365;158904;120575;129746;208171;524159;524159;84.0;0.0;0.0
11:31:48.729792;366;158623;120411;129624;207885;524159;524159;84.0;0.0;0.0
11:31:48.731111;367;157826;120227;129499;206970;524159;524159;84.0;0.0;0.0
11:31:48.899795;368;157120;120160;129466;206127;524159;524159;84.0;0.0;0.0
11:31:48.899795;369;156738;120170;129480;205653;524159;524159;84.0;0.0;0.0
11:31:48.909875;370;156670;120210;129514;205525;524159;524159;84.0;0.0;0.0
11:31:48.919879;371;156761;120261;129556;205607;524159;524159;84.0;0.0;0.0
11:31:48.919879;372;156830;120266;129562;205666;524159;524159;84.0;0.0;0.0
11:31:49.089837;373;156722;120231;129531;205525;524159;524159;84.0;0.0;0.0
11:31:49.100209;374;156543;120198;129520;205297;524159;524159;83.0;0.0;0.0
11:31:49.109931;375;156443;120205;129525;205164;524159;524159;83.0;0.0;0.0
11:31:49.119957;376;156458;120233;129543;205163;524159;524159;83.0;950.4;0.0
11:31:49.119957;377;156588;120278;129574;205305;524159;524159;83.0;0.0;0.0
11:31:49.300030;378;156760;120319;129609;205493;524159;524159;83.0;0.0;0.0
11:31:49.300030;379;156974;120355;129631;205744;524159;524159;83.0;0.0;0.0
11:31:49.309994;380;157159;120385;129660;205980;524159;524159;83.0;0.0;0.0
11:31:49.320050;381;157351;120413;129675;206222;524159;524159;83.0;0.0;0.0
11:31:49.329868;382;157534;120431;129687;206443;524159;524159;83.0;0.0;0.0
11:31:49.500039;383;157721;120457;129707;206671;524159;524159;83.0;0.0;0.0
11:31:49.505045;384;157938;120490;129735;206938;524159;524159;83.0;0.0;0.0
11:31:49.510076;385;158186;120535;129765;207249;524159;524159;83.0;0.0;0.0
11:31:49.519870;386;158456;120593;129809;207609;524159;524159;83.0;0.0;0.0
11:31:49.524877;387;158706;120613;129819;207939;524159;524159;83.0;0.0;0.0
11:31:49.699943;388;158549;120481;129719;207772;524159;524159;83.0;0.0;0.0
11:31:49.699943;389;157894;120326;129612;206981;524159;524159;82.0;0.0;0.0
11:31:49.710004;390;157271;120254;129583;206210;524159;524159;82.0;0.0;0.0
11:31:49.719912;391;156947;120268;129607;205769;524159;524159;82.0;0.0;0.0
11:31:49.719912;392;156946;120329;129655;205690;524159;524159;82.0;0.0;0.0
11:31:49.899755;393;157114;120389;129708;205824;524159;524159;82.0;0.0;0.0
11:31:49.899755;394;157224;120398;129710;205907;524159;524159;82.0;0.0;0.0
11:31:49.909995;395;157155;120381;129690;205778;524159;524159;82.0;0.0;0.0
11:31:49.919774;396;157026;120362;129683;205560;524159;524159;82.0;0.0;0.0
11:31:49.924780;397;156977;120362;129698;205451;524159;524159;82.0;0.0;0.0
11:31:50.100125;398;157039;120410;129723;205462;524159;524159;82.0;0.0;0.0
11:31:50.105131;399;157206;120447;129759;205576;524159;524159;82.0;0.0;0.0
11:31:50.115162;400;157398;120491;129797;205746;524159;524159;82.0;969.2;0.0
11:31:50.120189;401;157605;120529;129825;205935;524159;524159;82.0;0.0;0.0
11:31:50.130221;402;157811;120569;129852;206141;524159;524159;82.0;0.0;0.0
11:31:50.134726;403;157996;120587;129865;206330;524159;524159;82.0;0.0;0.0
11:31:50.499780;404;158186;120614;129889;206523;524159;524159;82.0;0.0;0.0
11:31:50.509979;405;158396;120643;129899;206744;524159;524159;82.0;0.0;0.0
11:31:50.519866;406;158439;120573;129846;206755;524159;524159;82.0;0.0;0.0
11:31:50.524913;407;157892;120386;129717;206062;524159;524159;82.0;0.0;0.0
11:31:50.532981;408;157094;120256;129622;205030;524159;524159;82.0;0.0;0.0
11:31:50.541079;409;156495;120218;129612;204209;524159;524159;81.0;0.0;0.0
11:31:50.548074;410;156217;120239;129631;203750;524159;524159;81.0;0.0;0.0
11:31:50.555069;411;156179;120270;129657;203599;524159;524159;81.0;0.0;0.0
11:31:50.562066;412;156233;120287;129664;203575;524159;524159;81.0;0.0;0.0
11:31:50.569668;413;156143;120260;129640;203385;524159;524159;81.0;0.0;0.0
11:31:50.906245;414;155925;120217;129625;203060;524159;524159;81.0;0.0;0.0
11:31:50.913242;415;155745;120203;129615;202770;524159;524159;81.0;0.0;0.0
11:31:50.920238;416;155694;120214;129620;202629;524159;524159;81.0;0.0;0.0
11:31:50.927233;417;155734;120239;129641;202599;524159;524159;81.0;0.0;0.0
11:31:50.931272;418;155849;120278;129674;202673;524159;524159;81.0;0.0;0.0
11:31:50.939815;419;155985;120318;129704;202781;524159;524159;81.0;0.0;0.0
11:31:50.939815;420;156132;120356;129739;202923;524159;524159;81.0;0.0;0.0
11:31:50.950084;421;156279;120383;129765;203055;524159;524159;81.0;0.0;0.0
11:31:50.959973;422;156417;120404;129782;203198;524159;524159;81.0;0.0;0.0
11:31:51.099897;423;156550;120425;129783;203342;524159;524159;81.0;0.0;0.0
11:31:51.109934;424;156716;120445;129814;203520;524159;524159;81.0;0.0;0.0
11:31:51.114939;425;156903;120494;129838;203722;524159;524159;81.0;978.1;0.0
11:31:51.125069;426;157134;120516;129856;203972;524159;524159;81.0;0.0;0.0
11:31:51.130114;427;157347;120526;129861;204230;524159;524159;81.0;0.0;0.0
11:31:51.135120;428;157015;120368;129739;203809;524159;524159;81.0;0.0;0.0
11:31:51.500033;429;155969;120129;129577;202523;524159;524159;81.0;0.0;0.0
11:31:51.509714;430;154898;119990;129500;201122;524159;524159;81.0;0.0;0.0
11:31:51.519768;431;154151;119936;129479;200102;524159;524159;81.0;0.0;0.0
11:31:51.519768;432;153693;119897;129444;199412;524159;524159;81.0;0.0;0.0
11:31:51.529722;433;153448;119891;129438;198986;524159;524159;81.0;0.0;0.0
11:31:51.539846;434;153274;119876;129428;198676;524159;524159;81.0;0.0;0.0
11:31:51.550041;435;153022;119818;129398;198274;524159;524159;81.0;0.0;0.0
11:31:51.550041;436;152701;119776;129372;197792;524159;524159;81.0;0.0;0.0
11:31:51.560070;437;152446;119761;129367;197407;524159;524159;81.0;0.0;0.0
11:31:51.569936;438;152341;119767;129369;197206;524159;524159;81.0;0.0;0.0
11:31:51.907453;439;152344;119777;129373;197160;524159;524159;81.0;0.0;0.0
11:31:51.914448;440;152437;119801;129388;197200;524159;524159;81.0;0.0;0.0
11:31:51.921921;441;152533;119814;129395;197272;524159;524159;81.0;0.0;0.0
11:31:51.928918;442;152621;119816;129397;197358;524159;524159;81.0;0.0;0.0
11:31:51.936211;443;152690;119815;129395;197423;524159;524159;81.0;0.0;0.0
11:31:51.942429;444;152773;119821;129395;197523;524159;524159;81.0;0.0;0.0
11:31:51.949428;445;152893;119839;129405;197655;524159;524159;81.0;0.0;0.0
11:31:51.957108;446;153051;119863;129422;197843;524159;524159;81.0;881.5;0.0
11:31:51.965009;447;153225;119891;129448;198058;524159;524159;81.0;0.0;0.0
11:31:52.111093;448;153442;119913;129459;198318;524159;524159;81.0;0.0;0.0
11:31:52.115087;449;153667;119942;129474;198612;524159;524159;81.0;0.0;0.0
11:31:52.119084;450;153899;119975;129490;198927;524159;524159;81.0;0.0;0.0
11:31:52.125513;451;154130;120010;129520;199256;524159;524159;81.0;0.0;0.0
11:31:52.131659;452;154363;120038;129536;199581;524159;524159;81.0;0.0;0.0
11:31:52.139656;453;154596;120069;129564;199911;524159;524159;81.0;0.0;0.0
11:31:52.508779;454;154861;120106;129582;200282;524159;524159;81.0;0.0;0.0
11:31:52.515776;455;155035;120089;129559;200532;524159;524159;81.0;0.0;0.0
11:31:52.523490;456;154485;119871;129398;199921;524159;524159;81.0;0.0;0.0
11:31:52.530654;457;153374;119653;129261;198590;524159;524159;81.0;0.0;0.0
11:31:52.537657;458;152380;119540;129197;197356;524159;524159;81.0;0.0;0.0
11:31:52.544653;459;151756;119500;129173;196522;524159;524159;81.0;0.0;0.0
11:31:52.551483;460;151365;119475;129168;195962;524159;524159;81.0;0.0;0.0
11:31:52.558481;461;151204;119478;129167;195660;524159;524159;81.0;0.0;0.0
11:31:52.565481;462;151053;119462;129155;195421;524159;524159;81.0;0.0;0.0
11:31:52.572483;463;150793;119409;129114;195075;524159;524159;81.0;0.0;0.0
11:31:52.908250;464;150514;119367;129089;194699;524159;524159;80.0;0.0;0.0
11:31:52.916244;465;150332;119356;129087;194444;524159;524159;80.0;743.9;0.0
11:31:52.922236;466;150296;119370;129096;194387;524159;524159;80.0;0.0;0.0
11:31:52.930234;467;150379;119397;129108;194453;524159;524159;80.0;0.0;0.0
11:31:52.937476;468;150497;119410;129119;194590;524159;524159;80.0;0.0;0.0
11:31:52.944470;469;150647;119431;129131;194755;524159;524159;80.0;0.0;0.0
11:31:52.951479;470;150773;119443;129129;194919;524159;524159;80.0;0.0;0.0
11:31:52.957863;471;150895;119457;129137;195081;524159;524159;80.0;0.0;0.0
11:31:52.965478;472;151023;119467;129144;195271;524159;524159;80.0;0.0;0.0
11:31:53.105461;473;151188;119488;129157;195514;524159;524159;80.0;0.0;0.0
11:31:53.112461;474;151375;119511;129184;195795;524159;524159;80.0;0.0;0.0
11:31:53.119458;475;151606;119547;129202;196127;524159;524159;80.0;0.0;0.0
11:31:53.128451;476;151855;119583;129222;196493;524159;524159;80.0;0.0;0.0
11:31:53.135473;477;152103;119613;129241;196863;524159;524159;80.0;0.0;0.0
11:31:53.142490;478;152357;119646;129257;197261;524159;524159;80.0;0.0;0.0
11:31:53.311000;479;152611;119684;129291;197667;524159;524159;80.0;0.0;0.0
11:31:53.325993;480;152873;119722;129317;198072;524159;524159;80.0;0.0;0.0
11:31:53.335986;481;153161;119770;129345;198508;524159;524159;80.0;0.0;0.0
11:31:53.341980;482;153449;119814;129372;198943;524159;524159;80.0;0.0;0.0
11:31:53.344979;483;153637;119789;129359;199255;524159;524159;80.0;0.0;0.0
11:31:53.511498;484;153205;119593;129208;198824;524159;524159;79.0;0.0;0.0
11:31:53.521489;485;152262;119399;129085;197744;524159;524159;79.0;0.0;0.0
11:31:53.526486;486;151462;119313;129042;196817;524159;524159;79.0;0.0;0.0
11:31:53.532480;487;151005;119286;129019;196263;524159;524159;79.0;868.9;0.0
11:31:53.537479;488;150804;119294;129018;195979;524159;524159;79.0;0.0;0.0
11:31:53.705471;489;150789;119310;129041;195920;524159;524159;79.0;0.0;0.0
11:31:53.712471;490;150762;119301;129026;195860;524159;524159;79.0;0.0;0.0
11:31:53.720467;491;150615;119264;128998;195696;524159;524159;79.0;0.0;0.0
11:31:53.729462;492;150435;119234;128977;195509;524159;524159;79.0;0.0;0.0
11:31:53.735194;493;150367;119232;128976;195444;524159;524159;79.0;0.0;0.0
11:31:54.111605;494;150422;119253;128991;195537;524159;524159;79.0;0.0;0.0
11:31:54.118472;495;150587;119283;129012;195771;524159;524159;79.0;0.0;0.0
11:31:54.126430;496;150791;119317;129034;196057;524159;524159;79.0;0.0;0.0
11:31:54.132426;497;150996;119337;129052;196356;524159;524159;79.0;0.0;0.0
11:31:54.147418;498;151208;119355;129055;196669;524159;524159;79.0;0.0;0.0
11:31:54.153412;499;151409;119373;129066;196986;524159;524159;78.0;0.0;0.0
11:31:54.157409;500;151587;119394;129080;197309;524159;524159;78.0;0.0;0.0
11:31:54.161407;501;151811;119428;129102;197662;524159;524159;78.0;0.0;0.0
11:31:54.168647;502;152064;119454;129133;198047;524159;524159;78.0;0.0;0.0
11:31:54.175645;503;152340;119503;129155;198486;524159;524159;78.0;0.0;0.0
11:31:54.305208;504;152637;119543;129187;198942;524159;524159;78.0;0.0;0.0
11:31:54.312457;505;152949;119587;129218;199424;524159;524159;78.0;0.0;0.0
11:31:54.319462;506;153271;119633;129249;199921;524159;524159;78.0;0.0;0.0
11:31:54.331457;507;153602;119677;129284;200417;524159;524159;78.0;0.0;0.0
11:31:54.335454;508;153956;119726;129317;200942;524159;524159;78.0;0.0;0.0
11:31:54.505491;509;154254;119740;129322;201407;524159;524159;77.0;0.0;0.0
11:31:54.513485;510;154068;119597;129218;201312;524159;524159;77.0;0.0;0.0
11:31:54.520482;511;153371;119423;129097;200594;524159;524159;77.0;0.0;0.0
11:31:54.528477;512;152766;119351;129067;199952;524159;524159;77.0;0.0;0.0
11:31:54.535473;513;152480;119353;129068;199636;524159;524159;77.0;0.0;0.0
11:31:54.706550;514;152456;119390;129099;199603;524159;524159;77.0;0.0;0.0
11:31:54.714468;515;152607;119430;129135;199783;524159;524159;77.0;1105.9;0.0
11:31:54.721467;516;152716;119448;129136;199958;524159;524159;77.0;0.0;0.0
11:31:54.728442;517;152669;119411;129115;199956;524159;524159;77.0;0.0;0.0
11:31:54.735488;518;152556;119398;129106;199872;524159;524159;77.0;0.0;0.0
11:31:55.112460;519;152557;119411;129122;199921;524159;524159;77.0;0.0;0.0
11:31:55.119460;520;152665;119447;129145;200099;524159;524159;77.0;0.0;0.0
11:31:55.130458;521;152862;119495;129193;200385;524159;524159;77.0;0.0;0.0
11:31:55.138448;522;153101;119541;129224;200729;524159;524159;77.0;0.0;0.0
11:31:55.142447;523;153345;119579;129248;201110;524159;524159;77.0;0.0;0.0
11:31:55.149648;524;153572;119605;129266;201476;524159;524159;77.0;0.0;0.0
11:31:55.156791;525;153800;119631;129284;201850;524159;524159;77.0;0.0;0.0
11:31:55.163631;526;154012;119658;129301;202189;524159;524159;77.0;0.0;0.0
11:31:55.170568;527;154265;119694;129325;202574;524159;524159;77.0;0.0;0.0
11:31:55.177673;528;154530;119746;129359;202961;524159;524159;77.0;0.0;0.0
11:31:55.306733;529;154824;119789;129399;203378;524159;524159;77.0;0.0;0.0
11:31:55.314729;530;155154;119845;129431;203833;524159;524159;77.0;0.0;0.0
11:31:55.322469;531;155500;119903;129478;204328;524159;524159;77.0;0.0;0.0
11:31:55.329451;532;155713;119886;129466;204661;524159;524159;77.0;0.0;0.0
11:31:55.336459;533;155389;119730;129350;204377;524159;524159;77.0;0.0;0.0
11:31:55.507460;534;154743;119603;129273;203701;524159;524159;77.0;0.0;0.0
11:31:55.514460;535;154271;119564;129261;203196;524159;524159;77.0;0.0;0.0
11:31:55.521455;536;154127;119598;129285;203019;524159;524159;77.0;0.0;0.0
11:31:55.528466;537;154239;119657;129329;203109;524159;524159;77.0;0.0;0.0
11:31:55.535579;538;154454;119706;129372;203329;524159;524159;77.0;0.0;0.0
11:31:55.707094;539;154559;119697;129357;203445;524159;524159;77.0;0.0;0.0
11:31:55.713484;540;154494;119672;129349;203362;524159;524159;77.0;0.0;0.0
11:31:55.720446;541;154446;119672;129354;203295;524159;524159;77.0;0.0;0.0
11:31:55.728441;542;154506;119704;129376;203350;524159;524159;77.0;0.0;0.0
11:31:55.737435;543;154682;119746;129410;203540;524159;524159;77.0;1116.1;0.0
11:31:55.907463;544;154902;119792;129448;203791;524159;524159;77.0;0.0;0.0
11:31:55.914458;545;155167;119835;129480;204095;524159;524159;77.0;0.0;0.0
11:31:55.922454;546;155413;119873;129507;204402;524159;524159;77.0;0.0;0.0
11:31:55.929450;547;155651;119908;129520;204703;524159;524159;77.0;0.0;0.0
11:31:55.936446;548;155886;119926;129543;204981;524159;524159;77.0;0.0;97.0
11:31:56.108062;549;156117;119968;129573;205292;524159;524159;76.0;0.0;97.0
11:31:56.116055;550;156373;120021;129611;205638;524159;524159;76.0;0.0;97.0
11:31:56.122457;551;156600;120028;129619;205932;524159;524159;76.0;0.0;97.0
11:31:56.129468;552;156354;119897;129522;205691;524159;524159;76.0;0.0;97.0
11:31:56.137464;553;155662;119749;129418;204931;524159;524159;76.0;0.0;97.0
11:31:56.308452;554;155044;119692;129394;204216;524159;524159;76.0;0.0;97.0
11:31:56.315457;555;154727;119689;129398;203808;524159;524159;76.0;0.0;97.0
11:31:56.322456;556;154675;119734;129424;203690;524159;524159;76.0;0.0;97.0
11:31:56.330459;557;154795;119774;129465;203761;524159;524159;76.0;0.0;97.0
11:31:56.337455;558;154842;119775;129456;203786;524159;524159;76.0;0.0;97.0
11:31:56.508455;559;154734;119746;129445;203626;524159;524159;76.0;0.0;97.0
11:31:56.515457;560;154603;119737;129431;203458;524159;524159;76.0;0.0;97.0
11:31:56.523451;561;154579;119748;129447;203422;524159;524159;76.0;0.0;97.0
11:31:56.530440;562;154681;119784;129479;203516;524159;524159;76.0;0.0;97.0
11:31:56.537458;563;154873;119826;129513;203700;524159;524159;76.0;0.0;97.0
11:31:56.715776;564;155080;119871;129541;203912;524159;524159;76.0;0.0;97.0
11:31:56.730766;565;155280;119887;129555;204131;524159;524159;76.0;0.0;97.0
11:31:56.735760;566;155471;119915;129571;204354;524159;524159;76.0;0.0;97.0
11:31:56.738758;567;155647;119940;129582;204574;524159;524159;76.0;0.0;97.0
11:31:56.741757;568;155813;119967;129610;204792;524159;524159;76.0;0.0;97.0
11:31:56.909456;569;156025;120003;129624;205042;524159;524159;76.0;1044.6;97.0
11:31:56.916450;570;156254;120042;129661;205307;524159;524159;76.0;0.0;97.0
11:31:56.924441;571;156501;120080;129694;205593;524159;524159;76.0;0.0;97.0
11:31:56.931453;572;156759;120129;129720;205900;524159;524159;76.0;0.0;97.0
11:31:56.940448;573;156943;120117;129715;206129;524159;524159;76.0;0.0;96.9
11:31:57.109560;574;156475;119933;129579;205596;524159;524159;76.0;0.0;96.9
11:31:57.116559;575;155452;119747;129450;204400;524159;524159;76.0;0.0;96.9
11:31:57.124137;576;154525;119645;129409;203277;524159;524159;76.0;0.0;96.9
11:31:57.131133;577;153918;119630;129400;202495;524159;524159;76.0;0.0;96.9
11:31:57.139438;578;153571;119623;129402;201998;524159;524159;76.0;0.0;96.9
11:31:57.309455;579;153418;119636;129416;201700;524159;524159;76.0;0.0;96.9
11:31:57.324448;580;153285;119636;129406;201441;524159;524159;76.0;0.0;96.9
11:31:57.332442;581;153032;119596;129381;201088;524159;524159;76.0;0.0;96.9
11:31:57.335440;582;152749;119564;129361;200699;524159;524159;76.0;0.0;96.9
11:31:57.338437;583;152586;119555;129361;200447;524159;524159;76.0;0.0;96.9
11:31:57.510453;584;152567;119573;129362;200338;524159;524159;76.0;0.0;96.9
11:31:57.517458;585;152655;119592;129374;200352;524159;524159;76.0;0.0;96.9
11:31:57.524453;586;152785;119622;129392;200442;524159;524159;76.0;0.0;96.9
11:31:57.532450;587;152920;119633;129408;200553;524159;524159;76.0;0.0;96.9
11:31:57.539451;588;153012;119638;129407;200640;524159;524159;76.0;0.0;96.9
11:31:57.710646;589;153126;119654;129400;200747;524159;524159;76.0;0.0;96.9
11:31:57.720640;590;153243;119663;129412;200878;524159;524159;76.0;0.0;96.9
11:31:57.725637;591;153397;119695;129426;201041;524159;524159;76.0;907.2;96.9
11:31:57.731633;592;153578;119721;129439;201235;524159;524159;76.0;0.0;96.9
11:31:57.739627;593;153808;119744;129460;201491;524159;524159;76.0;0.0;96.9
11:31:57.909630;594;154047;119779;129480;201759;524159;524159;75.0;0.0;96.9
11:31:57.917426;595;154292;119819;129500;202062;524159;524159;75.0;0.0;96.9
11:31:57.924629;596;154544;119850;129520;202378;524159;524159;75.0;0.0;96.9
11:31:57.931635;597;154796;119879;129543;202714;524159;524159;75.0;0.0;96.9
11:31:57.938599;598;155060;119907;129564;203056;524159;524159;75.0;0.0;97.0
11:31:58.109585;599;155330;119957;129580;203383;524159;524159;75.0;0.0;97.0
11:31:58.118578;600;155609;119985;129611;203729;524159;524159;75.0;0.0;97.0
11:31:58.125452;601;155653;119917;129549;203807;524159;524159;75.0;0.0;97.0
11:31:58.133452;602;154870;119679;129368;202932;524159;524159;75.0;0.0;97.0
11:31:58.141078;603;153696;119479;129248;201561;524159;524159;75.0;0.0;97.0
11:31:58.310438;604;152742;119390;129209;200384;524159;524159;75.0;0.0;97.0
11:31:58.317297;605;152071;119350;129183;199507;524159;524159;75.0;0.0;97.0
11:31:58.325448;606;151637;119323;129162;198837;524159;524159;75.0;0.0;97.0
11:31:58.332447;607;151396;119322;129155;198405;524159;524159;75.0;0.0;97.0
11:31:58.340442;608;151188;119298;129145;198012;524159;524159;75.0;0.0;97.0
11:31:58.512817;609;150899;119252;129112;197539;524159;524159;75.0;0.0;97.0
11:31:58.521815;610;150638;119206;129078;197094;524159;524159;75.0;771.4;97.0
11:31:58.531807;611;150494;119214;129076;196817;524159;524159;75.0;0.0;97.0
11:31:58.538801;612;150482;119213;129088;196700;524159;524159;75.0;0.0;97.0
11:31:58.543798;613;150573;119235;129090;196712;524159;524159;75.0;0.0;97.0
11:31:58.714217;614;150689;119254;129100;196788;524159;524159;74.0;0.0;97.0
11:31:58.721213;615;150818;119265;129104;196884;524159;524159;74.0;0.0;97.0
11:31:58.729207;616;150939;119275;129107;196994;524159;524159;74.0;0.0;97.0
11:31:58.737204;617;151049;119283;129112;197121;524159;524159;74.0;0.0;97.0
11:31:58.742467;618;151176;119294;129113;197261;524159;524159;74.0;0.0;97.0
11:31:58.911444;619;151350;119323;129133;197449;524159;524159;74.0;0.0;97.0
11:31:58.918441;620;151562;119346;129156;197666;524159;524159;74.0;0.0;97.0
11:31:58.926446;621;151804;119376;129173;197944;524159;524159;74.0;0.0;97.0
11:31:58.933443;622;152052;119410;129191;198242;524159;524159;74.0;0.0;97.0
11:31:58.940453;623;152320;119440;129212;198566;524159;524159;74.0;0.0;97.0
11:31:59.111687;624;152589;119472;129224;198894;524159;524159;74.0;0.0;97.0
11:31:59.118438;625;152867;119505;129248;199218;524159;524159;74.0;0.0;97.0
11:31:59.126391;626;153145;119543;129276;199572;524159;524159;74.0;0.0;97.0
11:31:59.133399;627;153428;119574;129297;199929;524159;524159;74.0;0.0;97.0
11:31:59.140874;628;153721;119613;129316;200310;524159;524159;74.0;0.0;97.0
11:31:59.313449;629;153883;119587;129299;200527;524159;524159;73.0;0.0;97.0
11:31:59.321444;630;153321;119377;129139;199878;524159;524159;73.0;0.0;97.0
11:31:59.328440;631;152277;119177;129009;198632;524159;524159;73.0;0.0;97.0
11:31:59.335435;632;151402;119087;128966;197510;524159;524159;73.0;0.0;97.0
11:31:59.342549;633;150828;119048;128946;196699;524159;524159;73.0;882.8;97.0
11:31:59.516702;634;150495;119036;128931;196143;524159;524159;73.0;0.0;97.0
11:31:59.522694;635;150365;119036;128939;195823;524159;524159;73.0;0.0;97.0
11:31:59.528691;636;150266;119009;128919;195556;524159;524159;73.0;0.0;97.0
11:31:59.535686;637;150069;118975;128882;195193;524159;524159;73.0;0.0;97.0
11:31:59.542682;638;149851;118946;128871;194820;524159;524159;73.0;0.0;97.0
11:31:59.712436;639;149738;118943;128868;194581;524159;524159;73.0;0.0;97.0
11:31:59.719443;640;149776;118958;128872;194548;524159;524159;73.0;0.0;97.0
11:31:59.727443;641;149883;118982;128885;194617;524159;524159;73.0;0.0;97.0
11:31:59.734435;642;150044;118998;128897;194776;524159;524159;73.0;0.0;97.0
11:31:59.742438;643;150196;119015;128907;194941;524159;524159;73.0;0.0;97.0
11:31:59.912432;644;150337;119021;128904;195120;524159;524159;73.0;0.0;97.0
11:31:59.920428;645;150475;119036;128915;195303;524159;524159;73.0;0.0;97.0
11:31:59.927423;646;150632;119042;128923;195509;524159;524159;73.0;0.0;97.0
11:31:59.935419;647;150812;119076;128940;195743;524159;524159;73.0;0.0;97.0
11:31:59.942442;648;151022;119110;128953;196013;524159;524159;73.0;0.0;96.8
11:32:00.112600;649;151268;119141;128980;196338;524159;524159;72.0;0.0;96.8
11:32:00.120593;650;151528;119169;128998;196693;524159;524159;72.0;0.0;96.8
11:32:00.127434;651;151807;119204;129028;197059;524159;524159;72.0;0.0;96.8
11:32:00.137435;652;152096;119245;129044;197450;524159;524159;72.0;0.0;96.8
11:32:00.144427;653;152376;119279;129076;197831;524159;524159;72.0;0.0;96.8
11:32:00.312435;654;152655;119320;129097;198236;524159;524159;72.0;0.0;96.8
11:32:00.320444;655;152965;119359;129126;198664;524159;524159;72.0;0.0;96.8
11:32:00.327431;656;153253;119385;129143;199081;524159;524159;72.0;0.0;96.8
11:32:00.334637;657;153094;119256;129038;198956;524159;524159;72.0;0.0;96.8
11:32:00.341520;658;152324;119056;128901;198069;524159;524159;72.0;0.0;96.8
11:32:00.512467;659;151526;118944;128846;197097;524159;524159;72.0;0.0;96.8
11:32:00.520687;660;151024;118908;128834;196443;524159;524159;72.0;0.0;96.8
11:32:00.527432;661;150789;118917;128839;196095;524159;524159;72.0;1112.1;96.8
11:32:00.535720;662;150755;118940;128858;195994;524159;524159;72.0;0.0;96.8
11:32:00.542440;663;150766;118950;128864;195963;524159;524159;72.0;0.0;96.8
11:32:00.715017;664;150666;118918;128838;195816;524159;524159;72.0;0.0;96.8
11:32:00.725010;665;150490;118889;128820;195575;524159;524159;72.0;0.0;96.8
11:32:00.736002;666;150387;118884;128819;195419;524159;524159;72.0;0.0;96.8
11:32:00.745002;667;150417;118911;128838;195445;524159;524159;72.0;0.0;96.8
11:32:00.750996;668;150567;118946;128862;195615;524159;524159;72.0;0.0;96.8
11:32:00.913420;669;150766;118983;128891;195844;524159;524159;71.0;0.0;96.8
11:32:00.920441;670;150961;119015;128906;196083;524159;524159;71.0;0.0;96.8
11:32:00.927429;671;151143;119035;128917;196324;524159;524159;71.0;0.0;96.8
11:32:00.935010;672;151322;119064;128943;196582;524159;524159;71.0;0.0;96.8
11:32:00.942166;673;151496;119087;128967;196825;524159;524159;71.0;0.0;96.6
11:32:01.114431;674;151704;119120;128984;197098;524159;524159;71.0;0.0;96.6
11:32:01.121432;675;151937;119161;129013;197394;524159;524159;71.0;0.0;96.6
11:32:01.128431;676;152201;119207;129047;197745;524159;524159;71.0;0.0;96.6
11:32:01.136435;677;152477;119259;129090;198092;524159;524159;71.0;0.0;96.6
11:32:01.144425;678;152780;119303;129120;198494;524159;524159;71.0;0.0;96.6
11:32:01.313919;679;153066;119359;129152;198900;524159;524159;71.0;0.0;96.6
11:32:01.321433;680;153380;119387;129176;199333;524159;524159;71.0;0.0;96.6
11:32:01.328430;681;153514;119354;129133;199555;524159;524159;71.0;0.0;96.6
11:32:01.336423;682;153059;119174;129003;199052;524159;524159;71.0;0.0;96.6
11:32:01.344417;683;152325;119032;128919;198165;524159;524159;71.0;0.0;96.6
11:32:01.513095;684;151803;119000;128909;197476;524159;524159;71.0;0.0;96.6
11:32:01.521380;685;151578;119020;128922;197116;524159;524159;71.0;0.0;96.6
11:32:01.528415;686;151586;119067;128965;197037;524159;524159;71.0;0.0;96.6
11:32:01.535807;687;151704;119102;128993;197128;524159;524159;71.0;0.0;96.6
11:32:01.542580;688;151717;119089;128981;197150;524159;524159;71.0;0.0;96.6
11:32:01.716148;689;151619;119064;128956;196997;524159;524159;71.0;1124.3;96.6
11:32:01.725143;690;151542;119053;128949;196880;524159;524159;71.0;0.0;96.6
11:32:01.732138;691;151599;119083;128969;196918;524159;524159;71.0;0.0;96.6
11:32:01.739133;692;151742;119122;128994;197068;524159;524159;71.0;0.0;96.6
11:32:01.745129;693;151963;119163;129028;197328;524159;524159;71.0;0.0;96.6
11:32:01.914586;694;152219;119192;129050;197631;524159;524159;71.0;0.0;96.6
11:32:01.921583;695;152470;119235;129070;197943;524159;524159;71.0;0.0;96.6
11:32:01.928578;696;152708;119259;129095;198245;524159;524159;71.0;0.0;96.6
11:32:01.936574;697;152933;119291;129114;198540;524159;524159;71.0;0.0;96.6
11:32:01.943569;698;153154;119326;129134;198849;524159;524159;71.0;0.0;96.5
11:32:02.115424;699;153397;119357;129162;199186;524159;524159;71.0;0.0;96.5
11:32:02.122420;700;153682;119398;129191;199551;524159;524159;71.0;0.0;96.5
11:32:02.130416;701;153977;119442;129220;199946;524159;524159;71.0;0.0;96.5
11:32:02.137606;702;154282;119490;129247;200374;524159;524159;71.0;0.0;96.5
11:32:02.144929;703;154607;119543;129287;200815;524159;524159;71.0;0.0;96.5
11:32:02.315614;704;154906;119585;129321;201242;524159;524159;71.0;0.0;96.5
11:32:02.323607;705;155232;119641;129352;201707;524159;524159;71.0;0.0;96.5
11:32:02.330427;706;155541;119681;129380;202158;524159;524159;71.0;0.0;96.5
11:32:02.337425;707;155563;119598;129311;202271;524159;524159;71.0;0.0;96.5
11:32:02.345374;708;154911;119380;129164;201568;524159;524159;71.0;0.0;96.5
11:32:02.515426;709;154071;119243;129087;200600;524159;524159;71.0;0.0;96.5
11:32:02.522426;710;153493;119216;129070;199894;524159;524159;71.0;0.0;96.5
11:32:02.530418;711;153197;119219;129080;199519;524159;524159;71.0;0.0;96.5
11:32:02.537314;712;153124;119246;129100;199388;524159;524159;71.0;0.0;96.5
11:32:02.545599;713;153169;119264;129112;199386;524159;524159;71.0;0.0;96.5
11:32:02.716420;714;153150;119261;129108;199327;524159;524159;71.0;0.0;96.5
11:32:02.723421;715;153028;119227;129081;199147;524159;524159;71.0;0.0;96.5
11:32:02.732415;716;152906;119230;129093;198998;524159;524159;71.0;1092.8;96.5
11:32:02.738412;717;152904;119250;129102;198984;524159;524159;71.0;0.0;96.5
11:32:02.745418;718;153019;119288;129134;199122;524159;524159;71.0;0.0;96.5
11:32:02.917717;719;153217;119332;129159;199364;524159;524159;71.0;0.0;96.5
11:32:02.928711;720;153437;119369;129186;199631;524159;524159;71.0;0.0;96.5
11:32:02.938705;721;153657;119396;129211;199902;524159;524159;71.0;0.0;96.5
11:32:02.943700;722;153862;119432;129224;200179;524159;524159;71.0;0.0;96.5
11:32:02.947697;723;154060;119452;129244;200463;524159;524159;71.0;0.0;96.3
11:32:03.117317;724;154262;119482;129264;200750;524159;524159;71.0;0.0;96.3
11:32:03.127312;725;154481;119517;129295;201057;524159;524159;71.0;0.0;96.3
11:32:03.137306;726;154731;119562;129322;201414;524159;524159;71.0;0.0;96.3
11:32:03.146300;727;155000;119611;129358;201794;524159;524159;71.0;0.0;96.3
11:32:03.152297;728;155288;119662;129391;202203;524159;524159;71.0;0.0;96.3
11:32:03.316426;729;155569;119710;129428;202607;524159;524159;71.0;0.0;96.3
11:32:03.323423;730;155869;119751;129458;203029;524159;524159;71.0;0.0;96.3
11:32:03.330407;731;156173;119806;129488;203453;524159;524159;71.0;0.0;96.3
11:32:03.337401;732;156495;119845;129523;203898;524159;524159;71.0;0.0;96.3
11:32:03.345605;733;156704;119827;129508;204220;524159;524159;71.0;0.0;96.3
11:32:03.517420;734;156289;119651;129370;203828;524159;524159;71.0;0.0;96.3
11:32:03.524415;735;155457;119477;129263;202934;524159;524159;71.0;0.0;96.3
11:32:03.532414;736;154776;119421;129232;202157;524159;524159;71.0;0.0;96.3
11:32:03.542404;737;154414;119420;129242;201736;524159;524159;71.0;0.0;96.3
11:32:03.546402;738;154288;119445;129256;201549;524159;524159;71.0;0.0;96.3
11:32:03.719473;739;154327;119480;129290;201558;524159;524159;71.0;0.0;96.3
11:32:03.729467;740;154342;119490;129291;201542;524159;524159;71.0;976.6;96.3
11:32:03.739460;741;154244;119451;129265;201407;524159;524159;71.0;0.0;96.3
11:32:03.748455;742;154076;119437;129257;201205;524159;524159;71.0;0.0;96.3
11:32:03.753452;743;154009;119450;129273;201131;524159;524159;71.0;0.0;96.3
11:32:03.917417;744;154075;119492;129301;201201;524159;524159;71.0;0.0;96.3
11:32:03.924417;745;154230;119533;129329;201382;524159;524159;71.0;0.0;96.3
11:32:03.931419;746;154435;119580;129355;201608;524159;524159;71.0;0.0;96.3
11:32:03.938416;747;154648;119610;129381;201883;524159;524159;71.0;0.0;96.3
11:32:03.946900;748;154848;119632;129404;202145;524159;524159;71.0;0.0;96.2
11:32:04.116751;749;155015;119656;129414;202382;524159;524159;70.0;0.0;96.2
11:32:04.123844;750;155204;119681;129432;202635;524159;524159;70.0;0.0;96.2
11:32:04.130844;751;155419;119708;129448;202910;524159;524159;70.0;0.0;96.2
11:32:04.138599;752;155644;119744;129466;203229;524159;524159;70.0;0.0;96.2
11:32:04.146519;753;155895;119785;129507;203590;524159;524159;70.0;0.0;96.2
11:32:04.318732;754;156176;119837;129531;203986;524159;524159;70.0;0.0;96.2
11:32:04.325722;755;156462;119879;129569;204382;524159;524159;70.0;0.0;96.2
11:32:04.334718;756;156754;119925;129594;204794;524159;524159;70.0;0.0;96.2
11:32:04.341713;757;157053;119962;129634;205216;524159;524159;70.0;0.0;96.2
11:32:04.348412;758;157372;120004;129656;205645;524159;524159;70.0;0.0;96.2
11:32:04.517405;759;157566;119994;129634;205951;524159;524159;70.0;0.0;96.2
11:32:04.524405;760;157138;119803;129501;205543;524159;524159;70.0;0.0;96.2
11:32:04.532250;761;156351;119643;129397;204705;524159;524159;70.0;0.0;96.2
11:32:04.539654;762;155726;119593;129374;204019;524159;524159;70.0;0.0;96.2
11:32:04.546416;763;155408;119603;129389;203643;524159;524159;70.0;0.0;96.2
11:32:04.718412;764;155331;119629;129413;203529;524159;524159;70.0;0.0;96.2
11:32:04.725361;765;155391;119665;129432;203565;524159;524159;70.0;0.0;96.2
11:32:04.733409;766;155395;119666;129442;203574;524159;524159;70.0;1031.8;96.2
11:32:04.740405;767;155253;119630;129419;203430;524159;524159;70.0;0.0;96.2
11:32:04.748427;768;155075;119619;129407;203237;524159;524159;70.0;0.0;96.2
11:32:04.922116;769;155014;119623;129424;203172;524159;524159;70.0;0.0;96.2
11:32:04.928113;770;155072;119663;129452;203256;524159;524159;70.0;0.0;96.2
11:32:04.933109;771;155236;119702;129479;203449;524159;524159;70.0;0.0;96.2
11:32:04.940106;772;155435;119743;129503;203688;524159;524159;70.0;0.0;96.2
11:32:04.947102;773;155626;119776;129528;203948;524159;524159;70.0;0.0;96.1
11:32:05.118416;774;155813;119798;129549;204213;524159;524159;70.0;0.0;96.1
11:32:05.125737;775;155981;119825;129560;204459;524159;524159;70.0;0.0;96.1
11:32:05.132588;776;156164;119851;129581;204721;524159;524159;70.0;0.0;96.1
11:32:05.140237;777;156353;119882;129600;204994;524159;524159;70.0;0.0;96.1
11:32:05.147591;778;156568;119916;129636;205307;524159;524159;70.0;0.0;96.1
11:32:05.318403;779;156813;119964;129673;205640;524159;524159;70.0;0.0;96.1
11:32:05.326409;780;157075;120009;129704;206015;524159;524159;70.0;0.0;96.1
11:32:05.334409;781;157376;120063;129740;206419;524159;524159;70.0;0.0;96.1
11:32:05.341402;782;157680;120111;129780;206836;524159;524159;70.0;0.0;96.1
11:32:05.348397;783;157821;120082;129747;207061;524159;524159;70.0;0.0;96.1
11:32:05.519411;784;157406;119921;129638;206654;524159;524159;69.0;0.0;96.1
11:32:05.526405;785;156710;119802;129552;205921;524159;524159;69.0;0.0;96.1
11:32:05.538407;786;156213;119775;129558;205380;524159;524159;69.0;0.0;96.1
11:32:05.550399;787;156052;119805;129582;205188;524159;524159;69.0;0.0;96.1
11:32:05.553394;788;156143;119865;129631;205262;524159;524159;69.0;0.0;96.1
11:32:05.719481;789;156322;119910;129660;205443;524159;524159;69.0;0.0;96.1
11:32:05.726818;790;156349;119895;129654;205512;524159;524159;69.0;0.0;96.1
11:32:05.733522;791;156237;119850;129614;205430;524159;524159;69.0;0.0;96.1
11:32:05.741365;792;156132;119825;129591;205326;524159;524159;69.0;0.0;96.1
11:32:05.748508;793;156150;119835;129598;205364;524159;524159;69.0;1054.6;96.1
11:32:05.919411;794;156265;119861;129616;205500;524159;524159;69.0;0.0;96.1
11:32:05.926410;795;156481;119903;129633;205736;524159;524159;69.0;0.0;96.1
11:32:05.934404;796;156714;119936;129650;205995;524159;524159;69.0;0.0;96.1
11:32:05.942597;797;156944;119960;129667;206267;524159;524159;69.0;0.0;96.1
11:32:05.949412;798;157146;119989;129680;206512;524159;524159;69.0;0.0;96.0
11:32:06.119398;799;157334;120009;129705;206734;524159;524159;69.0;0.0;96.0
11:32:06.127402;800;157527;120039;129713;206967;524159;524159;69.0;0.0;96.0
11:32:06.134404;801;157744;120064;129733;207235;524159;524159;69.0;0.0;96.0
11:32:06.142396;802;158009;120105;129764;207550;524159;524159;69.0;0.0;96.0
11:32:06.149393;803;158312;120149;129796;207906;524159;524159;69.0;0.0;96.0
11:32:06.320406;804;158478;120130;129769;208110;524159;524159;68.0;0.0;96.0
11:32:06.330403;805;158063;119959;129641;207644;524159;524159;68.0;0.0;96.0
11:32:06.335398;806;157317;119817;129555;206777;524159;524159;68.0;0.0;96.0
11:32:06.342409;807;156735;119772;129536;206035;524159;524159;68.0;0.0;96.0
11:32:06.349585;808;156469;119783;129548;205622;524159;524159;68.0;0.0;96.0
11:32:06.527068;809;156475;119839;129595;205511;524159;524159;68.0;0.0;96.0
11:32:06.541058;810;156605;119904;129659;205548;524159;524159;68.0;0.0;96.0
11:32:06.545052;811;156604;119902;129653;205464;524159;524159;68.0;0.0;96.0
11:32:06.549050;812;156430;119864;129637;205190;524159;524159;68.0;0.0;96.0
11:32:06.552048;813;156271;119851;129635;204925;524159;524159;68.0;0.0;96.0
11:32:06.720411;814;156229;119881;129661;204777;524159;524159;68.0;0.0;96.0
11:32:06.727401;815;156327;119953;129728;204790;524159;524159;68.0;0.0;96.0
11:32:06.734401;816;156489;120016;129789;204873;524159;524159;68.0;0.0;96.0
11:32:06.742396;817;156668;120073;129832;205004;524159;524159;68.0;0.0;96.0
11:32:06.751390;818;156861;120110;129871;205161;524159;524159;68.0;0.0;96.0
11:32:06.921402;819;157033;120136;129887;205311;524159;524159;68.0;1038.2;96.0
11:32:06.928357;820;157215;120164;129915;205449;524159;524159;68.0;0.0;96.0
11:32:06.936355;821;157396;120191;129942;205582;524159;524159;68.0;0.0;96.0
11:32:06.944350;822;157402;120157;129906;205539;524159;524159;68.0;0.0;96.0
11:32:06.952346;823;156839;119992;129798;204811;524159;524159;68.0;0.0;95.9
11:32:07.120746;824;156007;119862;129714;203714;524159;524159;67.0;0.0;95.9
11:32:07.128423;825;155361;119807;129697;202806;524159;524159;67.0;0.0;95.9
11:32:07.135578;826;155005;119818;129701;202219;524159;524159;67.0;0.0;95.9
11:32:07.142578;827;154918;119845;129737;201948;524159;524159;67.0;0.0;95.9
11:32:07.149552;828;154931;119866;129757;201817;524159;524159;67.0;0.0;95.9
11:32:07.321403;829;154819;119838;129737;201559;524159;524159;67.0;0.0;95.9
11:32:07.328393;830;154570;119808;129707;201149;524159;524159;67.0;0.0;95.9
11:32:07.335393;831;154371;119777;129701;200790;524159;524159;67.0;0.0;95.9
11:32:07.342388;832;154293;119786;129715;200586;524159;524159;67.0;0.0;95.9
11:32:07.350401;833;154345;119820;129736;200534;524159;524159;67.0;0.0;95.9
11:32:07.520399;834;154478;119847;129753;200579;524159;524159;67.0;0.0;95.9
11:32:07.528392;835;154617;119876;129774;200659;524159;524159;67.0;0.0;95.9
11:32:07.535392;836;154767;119890;129789;200766;524159;524159;67.0;0.0;95.9
11:32:07.543388;837;154899;119905;129791;200847;524159;524159;67.0;0.0;95.9
11:32:07.551383;838;155033;119916;129802;200946;524159;524159;67.0;0.0;95.9
11:32:07.723294;839;155174;119935;129824;201069;524159;524159;67.0;0.0;95.9
11:32:07.733289;840;155338;119956;129842;201223;524159;524159;67.0;0.0;95.9
11:32:07.741283;841;155568;119997;129855;201437;524159;524159;67.0;0.0;95.9
11:32:07.745281;842;155760;120000;129855;201609;524159;524159;67.0;951.9;95.9
11:32:07.751277;843;155397;119832;129736;201126;524159;524159;67.0;0.0;95.9
11:32:07.921761;844;154312;119600;129582;199761;524159;524159;66.0;0.0;95.9
11:32:07.930398;845;153235;119446;129494;198319;524159;524159;66.0;0.0;95.9
11:32:07.938396;846;152458;119385;129446;197188;524159;524159;66.0;0.0;95.9
11:32:07.945389;847;151953;119338;129422;196345;524159;524159;66.0;0.0;95.9
11:32:07.952627;848;151662;119320;129421;195780;524159;524159;66.0;0.0;95.9
11:32:08.121774;849;151495;119297;129403;195376;524159;524159;66.0;0.0;95.9
11:32:08.128572;850;151259;119245;129366;194896;524159;524159;66.0;0.0;95.9
11:32:08.136401;851;150968;119197;129327;194349;524159;524159;66.0;0.0;95.9
11:32:08.142826;852;150726;119172;129311;193904;524159;524159;66.0;0.0;95.9
11:32:08.150345;853;150642;119171;129312;193671;524159;524159;66.0;0.0;95.9
11:32:08.322419;854;150655;119184;129322;193585;524159;524159;66.0;0.0;95.9
11:32:08.330390;855;150756;119196;129323;193577;524159;524159;66.0;0.0;95.9
11:32:08.337390;856;150895;119208;129329;193654;524159;524159;66.0;0.0;95.9
11:32:08.345391;857;151013;119207;129329;193724;524159;524159;66.0;0.0;95.9
11:32:08.352531;858;151129;119208;129328;193801;524159;524159;66.0;0.0;95.9
11:32:08.523983;859;151258;119221;129327;193904;524159;524159;66.0;0.0;95.9
11:32:08.532976;860;151406;119233;129342;194041;524159;524159;66.0;0.0;95.9
11:32:08.539974;861;151603;119256;129353;194234;524159;524159;66.0;0.0;95.9
11:32:08.545968;862;151820;119290;129377;194479;524159;524159;66.0;0.0;95.9
11:32:08.552613;863;152065;119317;129387;194760;524159;524159;66.0;844.6;95.9
11:32:08.722391;864;152321;119346;129415;195065;524159;524159;66.0;0.0;95.9
11:32:08.730395;865;152578;119378;129437;195390;524159;524159;66.0;0.0;95.9
11:32:08.737378;866;152854;119409;129449;195724;524159;524159;66.0;0.0;95.9
11:32:08.744377;867;153142;119442;129470;196084;524159;524159;66.0;0.0;95.9
11:32:08.752394;868;153427;119471;129491;196441;524159;524159;66.0;0.0;95.9
11:32:08.923391;869;153735;119517;129514;196834;524159;524159;66.0;0.0;95.9
11:32:08.930393;870;153921;119487;129497;197097;524159;524159;66.0;0.0;95.9
11:32:08.938388;871;153336;119258;129323;196398;524159;524159;66.0;0.0;95.9
11:32:08.945383;872;152194;119021;129170;194968;524159;524159;66.0;0.0;95.9
11:32:08.952570;873;151206;118889;129106;193653;524159;524159;66.0;0.0;95.9
11:32:09.123072;874;150536;118828;129061;192664;524159;524159;65.0;0.0;95.9
11:32:09.131068;875;150094;118787;129036;191934;524159;524159;65.0;0.0;95.9
11:32:09.139062;876;149876;118773;129033;191512;524159;524159;65.0;0.0;95.9
11:32:09.145057;877;149722;118754;129024;191175;524159;524159;65.0;0.0;95.9
11:32:09.152052;878;149488;118702;128987;190764;524159;524159;65.0;0.0;95.9
11:32:09.323389;879;149222;118660;128955;190333;524159;524159;65.0;0.0;95.9
11:32:09.330386;880;149048;118641;128943;190032;524159;524159;65.0;0.0;95.9
11:32:09.338275;881;149027;118651;128952;189934;524159;524159;65.0;720.9;95.9
11:32:09.346672;882;149116;118672;128970;189972;524159;524159;65.0;0.0;95.9
11:32:09.353393;883;149280;118683;128974;190105;524159;524159;65.0;0.0;95.9
11:32:09.523652;884;149447;118701;128991;190255;524159;524159;65.0;0.0;95.9
11:32:09.530389;885;149601;118714;128994;190406;524159;524159;65.0;0.0;95.9
11:32:09.538383;886;149743;118723;128994;190575;524159;524159;65.0;0.0;95.9
11:32:09.545382;887;149913;118739;129006;190772;524159;524159;65.0;0.0;95.9
11:32:09.552564;888;150099;118757;129025;191017;524159;524159;65.0;0.0;95.9
11:32:09.724391;889;150334;118791;129042;191347;524159;524159;65.0;0.0;95.9
11:32:09.732381;890;150592;118825;129069;191709;524159;524159;65.0;0.0;95.9
11:32:09.740378;891;150861;118864;129090;192090;524159;524159;65.0;0.0;95.9
11:32:09.750376;892;151148;118896;129114;192478;524159;524159;65.0;0.0;95.9
11:32:09.754877;893;151452;118938;129135;192899;524159;524159;65.0;0.0;95.9
11:32:09.925234;894;151758;118975;129176;193336;524159;524159;65.0;0.0;95.9
11:32:09.932232;895;152089;119015;129195;193801;524159;524159;65.0;0.0;95.9
11:32:09.941220;896;152406;119055;129218;194266;524159;524159;65.0;0.0;95.9
11:32:09.948218;897;152408;118957;129139;194339;524159;524159;65.0;0.0;95.9
11:32:09.956214;898;151670;118717;128977;193460;524159;524159;65.0;0.0;95.9
11:32:10.123567;899;150754;118555;128877;192275;524159;524159;65.0;0.0;95.9
11:32:10.131563;900;150133;118484;128837;191391;524159;524159;65.0;0.0;95.9
11:32:10.138564;901;149826;118461;128830;190861;524159;524159;65.0;0.0;95.9
11:32:10.145680;902;149730;118466;128837;190610;524159;524159;65.0;825.9;95.9
11:32:10.153676;903;149755;118481;128841;190568;524159;524159;65.0;0.0;95.9
11:32:10.325385;904;149713;118454;128822;190457;524159;524159;65.0;0.0;95.9
11:32:10.334337;905;149565;118405;128790;190222;524159;524159;65.0;0.0;95.9
11:32:10.345333;906;149448;118390;128782;190062;524159;524159;65.0;0.0;95.9
11:32:10.352326;907;149456;118400;128793;190080;524159;524159;65.0;0.0;95.9
11:32:10.357326;908;149591;118434;128822;190268;524159;524159;65.0;0.0;95.9
11:32:10.524648;909;149795;118470;128847;190548;524159;524159;65.0;0.0;95.9
11:32:10.532642;910;150009;118509;128868;190860;524159;524159;65.0;0.0;95.9
11:32:10.539377;911;150217;118522;128888;191166;524159;524159;65.0;0.0;95.9
11:32:10.547380;912;150423;118550;128899;191486;524159;524159;65.0;0.0;95.9
11:32:10.554710;913;150615;118569;128922;191786;524159;524159;65.0;0.0;95.9
11:32:10.724648;914;150836;118600;128941;192115;524159;524159;65.0;0.0;95.9
11:32:10.733647;915;151095;118636;128963;192487;524159;524159;65.0;0.0;95.9
11:32:10.741640;916;151359;118680;128987;192883;524159;524159;65.0;0.0;95.9
11:32:10.747794;917;151661;118722;129024;193323;524159;524159;65.0;0.0;95.9
11:32:10.755792;918;151990;118768;129065;193816;524159;524159;65.0;0.0;95.9
11:32:10.932626;919;152338;118823;129096;194324;524159;524159;66.0;0.0;95.9
11:32:10.944617;920;152661;118850;129118;194812;524159;524159;66.0;0.0;95.9
11:32:10.951609;921;152557;118729;129027;194783;524159;524159;66.0;0.0;95.9
11:32:10.954607;922;151900;118541;128911;194029;524159;524159;66.0;0.0;95.9
11:32:10.957605;923;151270;118451;128857;193228;524159;524159;66.0;0.0;95.9
11:32:11.125559;924;150936;118446;128856;192781;524159;524159;66.0;0.0;95.9
11:32:11.132560;925;150891;118478;128882;192691;524159;524159;66.0;0.0;95.9
11:32:11.140558;926;151047;118517;128928;192868;524159;524159;66.0;0.0;95.9
11:32:11.147757;927;151170;118537;128931;193044;524159;524159;66.0;0.0;95.9
11:32:11.155132;928;151129;118506;128907;193018;524159;524159;66.0;0.0;95.9
11:32:11.325181;929;151020;118487;128897;192912;524159;524159;66.0;0.0;95.9
11:32:11.333328;930;151015;118503;128910;192939;524159;524159;66.0;1106.1;95.9
11:32:11.340372;931;151142;118543;128938;193130;524159;524159;66.0;0.0;95.9
11:32:11.348367;932;151365;118586;128973;193440;524159;524159;66.0;0.0;95.9
11:32:11.355363;933;151608;118630;129004;193822;524159;524159;66.0;0.0;95.9
11:32:11.526377;934;151859;118673;129033;194221;524159;524159;66.0;0.0;95.9
11:32:11.533682;935;152096;118705;129048;194616;524159;524159;66.0;0.0;95.9
11:32:11.541369;936;152338;118726;129067;195018;524159;524159;66.0;0.0;95.9
11:32:11.548708;937;152554;118758;129092;195385;524159;524159;66.0;0.0;95.9
11:32:11.556400;938;152799;118789;129117;195767;524159;524159;66.0;0.0;95.9
11:32:11.726375;939;153089;118843;129151;196207;524159;524159;66.0;0.0;95.9
11:32:11.733385;940;153423;118908;129196;196697;524159;524159;66.0;0.0;95.9
11:32:11.745377;941;153736;118939;129218;197174;524159;524159;66.0;0.0;95.9
11:32:11.752371;942;153691;118842;129143;197220;524159;524159;66.0;0.0;95.9
11:32:11.759367;943;153063;118671;129032;196523;524159;524159;66.0;0.0;95.9
11:32:11.928409;944;152412;118579;128977;195745;524159;524159;67.0;0.0;95.9
11:32:11.942404;945;152066;118563;128976;195295;524159;524159;67.0;0.0;95.9
11:32:11.957394;946;152024;118615;129016;195209;524159;524159;67.0;0.0;95.9
11:32:11.963391;947;152197;118672;129056;195385;524159;524159;67.0;0.0;95.9
11:32:11.970386;948;152330;118682;129067;195551;524159;524159;67.0;0.0;95.9
11:32:12.128479;949;152304;118650;129049;195511;524159;524159;67.0;0.0;95.9
11:32:12.138473;950;152204;118647;129041;195398;524159;524159;67.0;0.0;95.9
11:32:12.145470;951;152202;118665;129056;195412;524159;524159;67.0;0.0;95.9
11:32:12.151465;952;152344;118702;129099;195583;524159;524159;67.0;0.0;95.9
11:32:12.156462;953;152561;118762;129128;195874;524159;524159;67.0;0.0;95.9
11:32:12.328358;954;152831;118807;129168;196220;524159;524159;67.0;0.0;95.9
11:32:12.335325;955;153099;118845;129200;196553;524159;524159;67.0;0.0;95.9
11:32:12.342378;956;153352;118878;129218;196882;524159;524159;67.0;1060.6;95.9
11:32:12.350374;957;153567;118910;129250;197167;524159;524159;67.0;0.0;95.9
11:32:12.359368;958;153806;118952;129271;197478;524159;524159;67.0;0.0;95.9
11:32:12.365708;959;154077;118991;129297;197818;524159;524159;67.0;0.0;95.9
11:32:12.739060;960;154360;119036;129338;198160;524159;524159;67.0;0.0;95.9
11:32:12.752050;961;154352;118954;129270;198163;524159;524159;67.0;0.0;95.9
11:32:12.756047;962;153711;118772;129147;197382;524159;524159;67.0;0.0;95.9
11:32:12.760085;963;152941;118659;129081;196393;524159;524159;67.0;0.0;95.9
11:32:12.764045;964;152441;118626;129076;195706;524159;524159;67.0;0.0;95.9
11:32:12.770381;965;152241;118641;129088;195367;524159;524159;67.0;0.0;95.9
11:32:12.777000;966;152290;118688;129120;195339;524159;524159;67.0;0.0;95.9
11:32:12.784947;967;152390;118711;129138;195396;524159;524159;67.0;0.0;95.9
11:32:12.792377;968;152324;118681;129116;195285;524159;524159;67.0;0.0;95.9
11:32:12.799553;969;152187;118659;129103;195086;524159;524159;68.0;0.0;95.9
11:32:13.133629;970;152106;118656;129102;194973;524159;524159;68.0;0.0;95.9
11:32:13.142621;971;152179;118687;129120;195038;524159;524159;68.0;0.0;95.9
11:32:13.148618;972;152347;118726;129157;195216;524159;524159;68.0;0.0;95.9
11:32:13.155377;973;152554;118765;129183;195444;524159;524159;68.0;0.0;95.8
11:32:13.162365;974;152789;118809;129204;195735;524159;524159;68.0;0.0;95.8
11:32:13.169601;975;153008;118838;129231;196007;524159;524159;68.0;0.0;95.8
11:32:13.177749;976;153213;118857;129240;196287;524159;524159;68.0;0.0;95.8
11:32:13.184155;977;153406;118888;129260;196560;524159;524159;68.0;0.0;95.8
11:32:13.192398;978;153635;118912;129281;196848;524159;524159;68.0;0.0;95.8
11:32:13.199563;979;153890;118962;129308;197181;524159;524159;68.0;0.0;95.8
11:32:13.534367;980;154174;119005;129329;197527;524159;524159;68.0;944.6;95.8
11:32:13.542367;981;154203;118932;129279;197580;524159;524159;68.0;0.0;95.8
11:32:13.551366;982;153439;118716;129122;196713;524159;524159;68.0;0.0;95.8
11:32:13.558357;983;152421;118550;129026;195481;524159;524159;68.0;0.0;95.8
11:32:13.565353;984;151682;118486;128987;194534;524159;524159;68.0;0.0;95.8
11:32:13.572390;985;151242;118462;128974;193943;524159;524159;68.0;0.0;95.8
11:32:13.579317;986;151035;118472;128982;193637;524159;524159;68.0;0.0;95.8
11:32:13.587359;987;150998;118485;128982;193554;524159;524159;68.0;0.0;95.8
11:32:13.594546;988;150912;118464;128974;193430;524159;524159;68.0;0.0;95.8
11:32:13.602389;989;150729;118428;128948;193198;524159;524159;68.0;0.0;95.8
11:32:13.940207;990;150585;118417;128935;193011;524159;524159;68.0;0.0;95.8
11:32:13.952197;991;150589;118429;128938;192994;524159;524159;68.0;0.0;95.8
11:32:13.956194;992;150701;118461;128962;193129;524159;524159;68.0;0.0;95.8
11:32:13.960233;993;150890;118506;128989;193359;524159;524159;68.0;0.0;95.8
11:32:13.964189;994;151103;118532;129012;193604;524159;524159;68.0;0.0;95.8
11:32:13.971542;995;151290;118556;129027;193869;524159;524159;68.0;0.0;95.8
11:32:13.978372;996;151488;118576;129034;194122;524159;524159;68.0;0.0;95.8
11:32:13.985864;997;151662;118603;129044;194370;524159;524159;68.0;0.0;95.8
11:32:13.993553;998;151863;118630;129068;194646;524159;524159;68.0;0.0;95.8
11:32:14.000793;999;152102;118664;129088;194982;524159;524159;69.0;0.0;95.8
11:32:14.334788;1000;152375;118704;129112;195362;524159;524159;69.0;0.0;95.8
11:32:14.342512;1001;152677;118748;129142;195762;524159;524159;69.0;840.0;95.8
11:32:14.349544;1002;152971;118803;129166;196186;524159;524159;69.0;0.0;95.8
11:32:14.356542;1003;153273;118844;129199;196624;524159;524159;69.0;0.0;95.8
11:32:14.364692;1004;153592;118883;129225;197071;524159;524159;69.0;0.0;95.8
11:32:14.371535;1005;153935;118938;129252;197530;524159;524159;69.0;0.0;95.8
11:32:14.379467;1006;154225;118953;129271;197931;524159;524159;69.0;0.0;95.8
11:32:14.386913;1007;153937;118781;129143;197675;524159;524159;69.0;0.0;95.8
11:32:14.393517;1008;152864;118546;128978;196507;524159;524159;69.0;0.0;95.8
11:32:14.401466;1009;151804;118412;128900;195305;524159;524159;69.0;0.0;95.8
11:32:14.742759;1010;151128;118370;128878;194486;524159;524159;69.0;0.0;95.8
11:32:14.753757;1011;150734;118360;128871;193971;524159;524159;69.0;0.0;95.8
11:32:14.761749;1012;150553;118372;128883;193721;524159;524159;69.0;0.0;95.8
11:32:14.764746;1013;150485;118386;128891;193602;524159;524159;69.0;0.0;95.8
11:32:14.768744;1014;150314;118356;128866;193398;524159;524159;69.0;0.0;95.8
11:32:14.772742;1015;150104;118325;128850;193141;524159;524159;69.0;0.0;95.8
11:32:14.779736;1016;149966;118320;128850;192971;524159;524159;69.0;0.0;95.8
11:32:14.787537;1017;149985;118338;128860;192986;524159;524159;69.0;0.0;95.8
11:32:14.794894;1018;150128;118374;128885;193137;524159;524159;69.0;0.0;95.8
11:32:14.802539;1019;150329;118406;128916;193370;524159;524159;69.0;767.9;95.8
11:32:14.932220;1020;150528;118435;128929;193638;524159;524159;69.0;0.0;95.8
11:32:14.942212;1021;150717;118461;128942;193907;524159;524159;69.0;0.0;95.8
11:32:14.946210;1022;150887;118482;128948;194161;524159;524159;69.0;0.0;95.8
11:32:14.953205;1023;151082;118509;128967;194437;524159;524159;69.0;0.0;95.8
11:32:14.961200;1024;151297;118544;128987;194736;524159;524159;69.0;0.0;95.8
11:32:15.130360;1025;151542;118588;129016;195082;524159;524159;69.0;0.0;95.8
11:32:15.138357;1026;151813;118625;129055;195457;524159;524159;69.0;0.0;95.8
11:32:15.145360;1027;152113;118676;129078;195874;524159;524159;69.0;0.0;95.8
11:32:15.153353;1028;152414;118718;129109;196315;524159;524159;69.0;0.0;95.8
11:32:15.160350;1029;152722;118770;129146;196760;524159;524159;69.0;0.0;95.8
11:32:15.333160;1030;153029;118813;129174;197214;524159;524159;69.0;0.0;95.8
11:32:15.341155;1031;153349;118868;129204;197684;524159;524159;69.0;0.0;95.8
11:32:15.346152;1032;153667;118903;129233;198151;524159;524159;69.0;0.0;95.8
11:32:15.353148;1033;153530;118782;129138;198087;524159;524159;69.0;0.0;95.8
11:32:15.360365;1034;152624;118553;128982;197119;524159;524159;69.0;0.0;95.8
11:32:15.530102;1035;151676;118428;128905;196008;524159;524159;69.0;0.0;95.8
11:32:15.538096;1036;151092;118396;128893;195271;524159;524159;69.0;0.0;95.8
11:32:15.547267;1037;150809;118398;128899;194879;524159;524159;69.0;0.0;95.8
11:32:15.554262;1038;150740;118424;128903;194758;524159;524159;69.0;0.0;95.8
11:32:15.561259;1039;150776;118446;128930;194780;524159;524159;69.0;0.0;95.8
11:32:15.731355;1040;150707;118424;128899;194698;524159;524159;69.0;810.1;95.8
11:32:15.746351;1041;150567;118394;128885;194522;524159;524159;69.0;0.0;95.8
11:32:15.753343;1042;150484;118397;128887;194412;524159;524159;69.0;0.0;95.8
11:32:15.757341;1043;150560;118422;128904;194500;524159;524159;69.0;0.0;95.8
11:32:15.762338;1044;150755;118465;128930;194732;524159;524159;69.0;0.0;95.8
11:32:15.932354;1045;151016;118505;128961;195048;524159;524159;69.0;0.0;95.8
11:32:15.939356;1046;151280;118543;128989;195384;524159;524159;69.0;0.0;95.8
11:32:15.947350;1047;151526;118574;129004;195735;524159;524159;69.0;0.0;95.8
11:32:15.955346;1048;151758;118600;129018;196068;524159;524159;69.0;0.0;95.7
11:32:15.963533;1049;151988;118623;129037;196406;524159;524159;69.0;0.0;95.7
11:32:16.132567;1050;152223;118663;129063;196766;524159;524159;69.0;0.0;95.7
11:32:16.139560;1051;152489;118704;129096;197165;524159;524159;69.0;0.0;95.7
11:32:16.148555;1052;152791;118755;129128;197605;524159;524159;69.0;0.0;95.7
11:32:16.158548;1053;153129;118808;129167;198081;524159;524159;69.0;0.0;95.7
11:32:16.166543;1054;153467;118857;129212;198561;524159;524159;69.0;0.0;95.7
11:32:16.331439;1055;153835;118893;129227;199096;524159;524159;69.0;0.0;95.7
11:32:16.339355;1056;154200;118939;129252;199623;524159;524159;69.0;0.0;95.7
11:32:16.347350;1057;154425;118919;129224;199984;524159;524159;69.0;0.0;95.7
11:32:16.354328;1058;153976;118727;129076;199564;524159;524159;69.0;0.0;95.7
11:32:16.361359;1059;153147;118564;128969;198650;524159;524159;69.0;0.0;95.7
11:32:16.532348;1060;152549;118520;128947;197940;524159;524159;69.0;0.0;95.7
11:32:16.539349;1061;152324;118543;128962;197631;524159;524159;69.0;0.0;95.7
11:32:16.547344;1062;152359;118588;128996;197622;524159;524159;69.0;0.0;95.7
11:32:16.555340;1063;152559;118638;129035;197803;524159;524159;69.0;0.0;95.7
11:32:16.563358;1064;152647;118639;129034;197881;524159;524159;68.0;0.0;95.7
11:32:16.737345;1065;152575;118632;129036;197763;524159;524159;68.0;0.0;95.7
11:32:16.748344;1066;152479;118649;129061;197618;524159;524159;68.0;1023.7;95.7
11:32:16.755335;1067;152518;118688;129095;197637;524159;524159;68.0;0.0;95.7
11:32:16.761331;1068;152691;118740;129142;197817;524159;524159;68.0;0.0;95.7
11:32:16.767331;1069;152950;118797;129185;198094;524159;524159;68.0;0.0;95.7
11:32:16.933324;1070;153244;118840;129221;198429;524159;524159;68.0;0.0;95.7
11:32:16.942321;1071;153532;118901;129252;198779;524159;524159;68.0;0.0;95.7
11:32:16.951310;1072;153788;118924;129266;199113;524159;524159;68.0;0.0;95.7
11:32:16.954310;1073;154031;118959;129303;199416;524159;524159;68.0;0.0;95.7
11:32:16.962526;1074;154276;118991;129321;199739;524159;524159;68.0;0.0;95.7
11:32:17.133341;1075;154522;119033;129347;200075;524159;524159;68.0;0.0;95.7
11:32:17.140348;1076;154803;119094;129389;200436;524159;524159;68.0;0.0;95.7
11:32:17.147344;1077;155119;119142;129421;200854;524159;524159;68.0;0.0;95.7
11:32:17.155339;1078;155469;119198;129459;201306;524159;524159;68.0;0.0;95.7
11:32:17.162334;1079;155832;119254;129508;201776;524159;524159;68.0;0.0;95.7
11:32:17.333357;1080;156004;119223;129482;202042;524159;524159;68.0;0.0;95.7
11:32:17.340349;1081;155513;119042;129339;201542;524159;524159;68.0;0.0;95.7
11:32:17.348348;1082;154667;118883;129244;200593;524159;524159;68.0;0.0;95.7
11:32:17.356341;1083;154060;118848;129226;199898;524159;524159;68.0;0.0;95.7
11:32:17.364337;1084;153812;118863;129240;199571;524159;524159;68.0;0.0;95.7
11:32:17.533900;1085;153838;118911;129278;199544;524159;524159;68.0;0.0;95.7
11:32:17.541897;1086;153991;118958;129305;199700;524159;524159;68.0;0.0;95.7
11:32:17.548887;1087;154039;118950;129295;199776;524159;524159;68.0;0.0;95.7
11:32:17.556526;1088;153937;118929;129276;199655;524159;524159;68.0;0.0;95.7
11:32:17.563524;1089;153836;118924;129283;199541;524159;524159;68.0;0.0;95.7
11:32:17.733268;1090;153867;118949;129303;199577;524159;524159;68.0;0.0;95.7
11:32:17.741344;1091;154033;118991;129327;199743;524159;524159;68.0;0.0;95.7
11:32:17.748659;1092;154268;119040;129364;200009;524159;524159;68.0;1043.2;95.7
11:32:17.756343;1093;154548;119087;129393;200336;524159;524159;68.0;0.0;95.7
11:32:17.763344;1094;154811;119130;129429;200667;524159;524159;68.0;0.0;95.7
11:32:17.933297;1095;155059;119165;129445;200988;524159;524159;68.0;0.0;95.7
11:32:17.940777;1096;155280;119199;129466;201289;524159;524159;68.0;0.0;95.7
11:32:17.948323;1097;155517;119226;129489;201596;524159;524159;68.0;0.0;95.7
11:32:17.956344;1098;155768;119265;129516;201935;524159;524159;68.0;0.0;95.7
11:32:17.963521;1099;156059;119311;129551;202323;524159;524159;68.0;0.0;95.7
11:32:18.134343;1100;156366;119367;129590;202727;524159;524159;68.0;0.0;95.7
11:32:18.141344;1101;156691;119418;129625;203152;524159;524159;68.0;0.0;95.7
11:32:18.149334;1102;157035;119471;129664;203591;524159;524159;68.0;0.0;95.7
11:32:18.157356;1103;157336;119493;129679;203995;524159;524159;68.0;0.0;95.7
11:32:18.164623;1104;157151;119355;129576;203836;524159;524159;69.0;0.0;95.7
11:32:18.334644;1105;156297;119147;129430;202918;524159;524159;69.0;0.0;95.7
11:32:18.342640;1106;155473;119049;129373;201966;524159;524159;69.0;0.0;95.7
11:32:18.349342;1107;154976;119035;129373;201360;524159;524159;69.0;0.0;95.7
11:32:18.358336;1108;154809;119070;129393;201116;524159;524159;69.0;0.0;95.7
11:32:18.364879;1109;154863;119111;129422;201087;524159;524159;69.0;0.0;95.7
11:32:18.537340;1110;154929;119126;129437;201113;524159;524159;69.0;0.0;95.7
11:32:18.546331;1111;154854;119109;129412;201016;524159;524159;69.0;0.0;95.7
11:32:18.557326;1112;154689;119082;129402;200811;524159;524159;69.0;0.0;95.7
11:32:18.568320;1113;154597;119083;129400;200691;524159;524159;69.0;0.0;95.7
11:32:18.572317;1114;154658;119121;129425;200743;524159;524159;69.0;0.0;95.7
11:32:18.735337;1115;154852;119162;129461;200939;524159;524159;69.0;0.0;95.7
11:32:18.743341;1116;155092;119204;129492;201200;524159;524159;69.0;975.9;95.7
11:32:18.750334;1117;155332;119246;129518;201492;524159;524159;69.0;0.0;95.7
11:32:18.757342;1118;155549;119281;129540;201772;524159;524159;69.0;0.0;95.7
11:32:18.765354;1119;155752;119302;129560;202029;524159;524159;69.0;0.0;95.7
11:32:18.935471;1120;155944;119333;129572;202281;524159;524159;69.0;0.0;95.7
11:32:18.942466;1121;156151;119366;129601;202554;524159;524159;69.0;0.0;95.7
11:32:18.950461;1122;156375;119400;129628;202866;524159;524159;69.0;0.0;95.7
11:32:18.958348;1123;156629;119451;129660;203206;524159;524159;69.0;0.0;95.7
11:32:18.965451;1124;156904;119498;129687;203581;524159;524159;69.0;0.0;95.7
11:32:19.135613;1125;157194;119550;129724;203975;524159;524159;69.0;0.0;95.7
11:32:19.142994;1126;157503;119593;129759;204390;524159;524159;69.0;0.0;95.7
11:32:19.150295;1127;157779;119622;129778;204772;524159;524159;69.0;0.0;95.7
11:32:19.157294;1128;157540;119483;129668;204561;524159;524159;69.0;0.0;95.7
11:32:19.165346;1129;156635;119280;129530;203585;524159;524159;69.0;0.0;95.7
11:32:19.335349;1130;155759;119178;129468;202582;524159;524159;69.0;0.0;95.7
11:32:19.344341;1131;155263;119153;129463;201945;524159;524159;69.0;0.0;95.7
11:32:19.364329;1132;155070;119174;129489;201617;524159;524159;69.0;0.0;95.7
11:32:19.372319;1133;155094;119216;129506;201570;524159;524159;69.0;0.0;95.7
11:32:19.378315;1134;155136;119241;129525;201551;524159;524159;69.0;0.0;95.7
11:32:19.535601;1135;155035;119209;129495;201382;524159;524159;69.0;0.0;95.7
11:32:19.543595;1136;154848;119177;129480;201127;524159;524159;69.0;0.0;95.7
11:32:19.551591;1137;154742;119180;129488;200986;524159;524159;69.0;0.0;95.7
11:32:19.559339;1138;154776;119213;129505;201000;524159;524159;69.0;0.0;95.7
11:32:19.566713;1139;154919;119252;129538;201159;524159;524159;69.0;916.9;95.7
11:32:19.743430;1140;155127;119291;129568;201397;524159;524159;69.0;0.0;95.7
11:32:19.758420;1141;155346;119327;129591;201656;524159;524159;69.0;0.0;95.7
11:32:19.768414;1142;155554;119358;129606;201933;524159;524159;69.0;0.0;95.7
11:32:19.773409;1143;155739;119372;129625;202199;524159;524159;69.0;0.0;95.7
11:32:19.777403;1144;155924;119404;129633;202465;524159;524159;69.0;0.0;95.7
11:32:19.936286;1145;156120;119439;129662;202751;524159;524159;69.0;0.0;95.7
11:32:19.947282;1146;156351;119466;129687;203068;524159;524159;69.0;0.0;95.7
11:32:19.964272;1147;156607;119521;129723;203431;524159;524159;69.0;0.0;95.7
11:32:19.972267;1148;156878;119567;129755;203817;524159;524159;69.0;0.0;95.7
11:32:19.978263;1149;157171;119620;129790;204224;524159;524159;69.0;0.0;95.7
11:32:20.136461;1150;157499;119668;129839;204676;524159;524159;69.0;0.0;95.7
11:32:20.143339;1151;157737;119679;129838;205026;524159;524159;69.0;0.0;95.7
11:32:20.150326;1152;157393;119525;129722;204725;524159;524159;69.0;0.0;95.7
11:32:20.158345;1153;156524;119341;129607;203787;524159;524159;69.0;0.0;95.7
11:32:20.165909;1154;155803;119279;129573;202945;524159;524159;69.0;0.0;95.7
11:32:20.343146;1155;155444;119287;129581;202451;524159;524159;69.0;0.0;95.7
11:32:20.356139;1156;155405;119335;129618;202290;524159;524159;69.0;0.0;95.7
11:32:20.366131;1157;155542;119376;129668;202344;524159;524159;69.0;0.0;95.7
11:32:20.373128;1158;155584;119398;129669;202349;524159;524159;69.0;0.0;95.7
11:32:20.380121;1159;155423;119353;129644;202118;524159;524159;69.0;0.0;95.7
11:32:20.536706;1160;155225;119342;129642;201837;524159;524159;69.0;0.0;95.7
11:32:20.543510;1161;155142;119353;129650;201684;524159;524159;69.0;0.0;95.7
11:32:20.550664;1162;155221;119382;129670;201699;524159;524159;69.0;0.0;95.7
11:32:20.558480;1163;155402;119427;129712;201841;524159;524159;69.0;940.1;95.7
11:32:20.565592;1164;155627;119477;129740;202034;524159;524159;69.0;0.0;95.7
11:32:20.736974;1165;155852;119513;129768;202263;524159;524159;69.0;0.0;95.7
11:32:20.745330;1166;156077;119543;129787;202484;524159;524159;69.0;0.0;95.7
11:32:20.753330;1167;156271;119572;129806;202706;524159;524159;69.0;0.0;95.7
11:32:20.760333;1168;156454;119599;129818;202910;524159;524159;69.0;0.0;95.7
11:32:20.768303;1169;156646;119624;129843;203131;524159;524159;69.0;0.0;95.7
11:32:20.937326;1170;156888;119671;129874;203403;524159;524159;69.0;0.0;95.7
11:32:20.945321;1171;157143;119713;129906;203710;524159;524159;69.0;0.0;95.7
11:32:20.953315;1172;157446;119768;129940;204069;524159;524159;69.0;0.0;95.7
11:32:20.961311;1173;157761;119815;129977;204449;524159;524159;69.0;0.0;95.7
11:32:20.968323;1174;157817;119753;129927;204549;524159;524159;68.0;0.0;95.7
11:32:21.137919;1175;157128;119545;129773;203766;524159;524159;68.0;0.0;95.7
11:32:21.145326;1176;156186;119389;129685;202640;524159;524159;68.0;0.0;95.7
11:32:21.152327;1177;155543;119350;129655;201799;524159;524159;68.0;0.0;95.7
11:32:21.160347;1178;155254;119370;129680;201335;524159;524159;68.0;0.0;95.7
11:32:21.167319;1179;155250;119407;129704;201203;524159;524159;68.0;0.0;95.7
11:32:21.337319;1180;155344;119433;129728;201191;524159;524159;68.0;0.0;95.7
11:32:21.345325;1181;155297;119415;129707;201066;524159;524159;68.0;0.0;95.7
11:32:21.352323;1182;155119;119374;129675;200781;524159;524159;68.0;0.0;95.7
11:32:21.359277;1183;154967;119358;129666;200511;524159;524159;68.0;0.0;95.7
11:32:21.367636;1184;154949;119378;129678;200417;524159;524159;68.0;0.0;95.7
11:32:21.539358;1185;155063;119411;129700;200481;524159;524159;68.0;0.0;95.7
11:32:21.550354;1186;155242;119449;129733;200636;524159;524159;68.0;0.0;95.7
11:32:21.560346;1187;155467;119485;129761;200863;524159;524159;68.0;959.9;95.7
11:32:21.569341;1188;155677;119508;129774;201096;524159;524159;68.0;0.0;95.7
11:32:21.573339;1189;155869;119532;129788;201318;524159;524159;68.0;0.0;95.7
11:32:21.738197;1190;156055;119552;129805;201522;524159;524159;68.0;0.0;95.7
11:32:21.745502;1191;156261;119573;129816;201755;524159;524159;68.0;0.0;95.7
11:32:21.752645;1192;156503;119602;129824;202044;524159;524159;68.0;0.0;95.7
11:32:21.759501;1193;156756;119633;129847;202331;524159;524159;68.0;0.0;95.7
11:32:21.767503;1194;157039;119677;129877;202669;524159;524159;68.0;0.0;95.7
11:32:21.938318;1195;157338;119721;129914;203017;524159;524159;68.0;0.0;95.7
11:32:21.945321;1196;157654;119771;129955;203401;524159;524159;68.0;0.0;95.7
11:32:21.960318;1197;157813;119760;129942;203626;524159;524159;68.0;0.0;95.7
11:32:21.964313;1198;157257;119565;129788;202998;524159;524159;68.0;0.0;95.8
11:32:21.969311;1199;156218;119370;129672;201750;524159;524159;68.0;0.0;95.8
11:32:22.145196;1200;155399;119288;129631;200666;524159;524159;68.0;0.0;95.8
11:32:22.161189;1201;154957;119275;129627;199980;524159;524159;68.0;0.0;95.8
11:32:22.171183;1202;154791;119296;129640;199616;524159;524159;68.0;0.0;95.8
11:32:22.174178;1203;154820;119324;129661;199505;524159;524159;68.0;0.0;95.8
11:32:22.177176;1204;154779;119318;129654;199361;524159;524159;68.0;0.0;95.8
11:32:22.338703;1205;154578;119273;129628;199029;524159;524159;68.0;0.0;95.8
11:32:22.346800;1206;154348;119249;129608;198666;524159;524159;68.0;0.0;95.8
11:32:22.353702;1207;154236;119249;129613;198454;524159;524159;68.0;0.0;95.8
11:32:22.361335;1208;154287;119278;129629;198423;524159;524159;68.0;0.0;95.8
11:32:22.368502;1209;154428;119306;129652;198531;524159;524159;68.0;0.0;95.8
11:32:22.545776;1210;154614;119344;129677;198713;524159;524159;68.0;0.0;95.8
11:32:22.559762;1211;154811;119371;129700;198924;524159;524159;68.0;951.5;95.8
11:32:22.563758;1212;154997;119396;129706;199112;524159;524159;68.0;0.0;95.8
11:32:22.566756;1213;155148;119412;129720;199273;524159;524159;68.0;0.0;95.8
11:32:22.569755;1214;155308;119430;129724;199448;524159;524159;67.0;0.0;95.8
11:32:22.739318;1215;155496;119463;129759;199653;524159;524159;67.0;0.0;95.8
11:32:22.746317;1216;155726;119493;129780;199911;524159;524159;67.0;0.0;95.8
11:32:22.754317;1217;155969;119529;129804;200211;524159;524159;67.0;0.0;95.8
11:32:22.761317;1218;156245;119581;129831;200544;524159;524159;67.0;0.0;95.8
11:32:22.769313;1219;156526;119622;129868;200894;524159;524159;67.0;0.0;95.8
11:32:22.940319;1220;156838;119664;129896;201269;524159;524159;67.0;0.0;95.8
11:32:22.947320;1221;157065;119669;129898;201570;524159;524159;67.0;0.0;95.8
11:32:22.955313;1222;156684;119497;129762;201151;524159;524159;67.0;0.0;95.8
11:32:22.962326;1223;155720;119277;129627;199959;524159;524159;67.0;0.0;95.8
11:32:22.969321;1224;154852;119177;129565;198818;524159;524159;67.0;0.0;95.8
11:32:23.139971;1225;154365;119163;129554;198097;524159;524159;67.0;0.0;95.8
11:32:23.148966;1226;154183;119176;129571;197728;524159;524159;67.0;0.0;95.8
11:32:23.156309;1227;154208;119204;129587;197635;524159;524159;67.0;0.0;95.8
11:32:23.163653;1228;154210;119207;129593;197581;524159;524159;67.0;0.0;95.8
11:32:23.170891;1229;154056;119169;129557;197356;524159;524159;67.0;0.0;95.8
11:32:23.339321;1230;153853;119129;129541;197052;524159;524159;67.0;0.0;95.8
11:32:23.347298;1231;153746;119131;129542;196870;524159;524159;67.0;0.0;95.8
11:32:23.355566;1232;153815;119154;129555;196890;524159;524159;67.0;0.0;95.8
11:32:23.365559;1233;153982;119187;129582;197050;524159;524159;67.0;904.7;95.8
11:32:23.372554;1234;154210;119229;129615;197278;524159;524159;67.0;0.0;95.8
11:32:23.541323;1235;154427;119254;129624;197532;524159;524159;67.0;0.0;95.8
11:32:23.548312;1236;154658;119278;129650;197813;524159;524159;67.0;0.0;95.8
11:32:23.560309;1237;154853;119300;129662;198057;524159;524159;67.0;0.0;95.8
11:32:23.569307;1238;155046;119319;129675;198301;524159;524159;67.0;0.0;95.8
11:32:23.575303;1239;155262;119346;129699;198582;524159;524159;66.0;0.0;95.8
11:32:23.740317;1240;155497;119387;129721;198917;524159;524159;66.0;0.0;95.8
11:32:23.748312;1241;155771;119436;129763;199280;524159;524159;66.0;0.0;95.8
11:32:23.756307;1242;156061;119485;129803;199684;524159;524159;66.0;0.0;95.8
11:32:23.764542;1243;156396;119543;129847;200110;524159;524159;66.0;0.0;95.8
11:32:23.771694;1244;156642;119551;129852;200442;524159;524159;66.0;0.0;95.8
11:32:23.941306;1245;156298;119403;129740;200059;524159;524159;66.0;0.0;95.8
11:32:23.948261;1246;155455;119222;129630;199010;524159;524159;66.0;0.0;95.8
11:32:23.956261;1247;154757;119160;129598;198049;524159;524159;66.0;0.0;95.8
11:32:23.967256;1248;154425;119156;129605;197524;524159;524159;66.0;0.0;95.8
11:32:23.974250;1249;154403;119199;129644;197346;524159;524159;66.0;0.0;95.8
11:32:24.141337;1250;154541;119246;129678;197397;524159;524159;66.0;0.0;95.8
11:32:24.148307;1251;154603;119241;129673;197378;524159;524159;66.0;0.0;95.8
11:32:24.156308;1252;154477;119201;129645;197143;524159;524159;66.0;0.0;95.8
11:32:24.164308;1253;154306;119176;129639;196861;524159;524159;66.0;0.0;95.8
11:32:24.172303;1254;154250;119199;129645;196735;524159;524159;66.0;0.0;95.8
11:32:24.341302;1255;154346;119221;129663;196790;524159;524159;66.0;0.0;95.8
11:32:24.350314;1256;154537;119272;129703;196949;524159;524159;66.0;931.6;95.8
11:32:24.357307;1257;154747;119318;129749;197160;524159;524159;66.0;0.0;95.8
11:32:24.365320;1258;154964;119356;129784;197426;524159;524159;66.0;0.0;95.8
11:32:24.372306;1259;155164;119370;129787;197680;524159;524159;66.0;0.0;95.8
11:32:24.541241;1260;155342;119398;129803;197910;524159;524159;66.0;0.0;95.8
11:32:24.549234;1261;155535;119415;129819;198174;524159;524159;66.0;0.0;95.8
11:32:24.557229;1262;155744;119439;129829;198456;524159;524159;66.0;0.0;95.8
11:32:24.564309;1263;155986;119479;129848;198776;524159;524159;66.0;0.0;95.8
11:32:24.572430;1264;156261;119535;129887;199136;524159;524159;66.0;0.0;95.8
11:32:24.741685;1265;156565;119580;129921;199533;524159;524159;66.0;0.0;95.8
11:32:24.748484;1266;156878;119629;129956;199956;524159;524159;66.0;0.0;95.8
11:32:24.756331;1267;156944;119566;129907;200075;524159;524159;66.0;0.0;95.8
11:32:24.763487;1268;156245;119349;129738;199261;524159;524159;66.0;0.0;95.8
11:32:24.770838;1269;155255;119172;129641;198021;524159;524159;66.0;0.0;95.8
11:32:24.942332;1270;154538;119115;129609;197069;524159;524159;66.0;0.0;95.8
11:32:24.949327;1271;154179;119104;129606;196528;524159;524159;66.0;0.0;95.8
11:32:24.957321;1272;154086;119132;129630;196300;524159;524159;66.0;0.0;95.8
11:32:24.964315;1273;154147;119162;129649;196263;524159;524159;66.0;0.0;95.8
11:32:24.971310;1274;154078;119139;129626;196113;524159;524159;66.0;0.0;95.8
11:32:25.142302;1275;153891;119097;129600;195819;524159;524159;66.0;0.0;95.8
11:32:25.149302;1276;153706;119077;129587;195539;524159;524159;66.0;0.0;95.8
11:32:25.158295;1277;153671;119089;129603;195432;524159;524159;66.0;0.0;95.8
11:32:25.165288;1278;153760;119120;129625;195507;524159;524159;66.0;0.0;95.8
11:32:25.173017;1279;153935;119156;129650;195709;524159;524159;66.0;0.0;95.8
11:32:25.342278;1280;154144;119184;129673;195951;524159;524159;66.0;0.0;95.8
11:32:25.349485;1281;154337;119208;129688;196206;524159;524159;66.0;967.5;95.8
11:32:25.357317;1282;154513;119226;129705;196437;524159;524159;66.0;0.0;95.8
11:32:25.364306;1283;154668;119255;129716;196653;524159;524159;66.0;0.0;95.8
11:32:25.371885;1284;154853;119273;129736;196914;524159;524159;66.0;0.0;95.8
11:32:25.542299;1285;155047;119306;129753;197186;524159;524159;66.0;0.0;95.8
11:32:25.550298;1286;155268;119344;129788;197500;524159;524159;66.0;0.0;95.8
11:32:25.557303;1287;155536;119393;129816;197866;524159;524159;66.0;0.0;95.8
11:32:25.565299;1288;155824;119434;129846;198260;524159;524159;66.0;0.0;95.8
11:32:25.572683;1289;156103;119480;129875;198653;524159;524159;66.0;0.0;95.8
11:32:25.750726;1290;156397;119522;129912;199055;524159;524159;66.0;0.0;95.8
11:32:25.768716;1291;156636;119539;129910;199405;524159;524159;66.0;0.0;95.8
11:32:25.773712;1292;156299;119362;129791;199072;524159;524159;66.0;0.0;95.8
11:32:25.777709;1293;155286;119141;129634;197866;524159;524159;66.0;0.0;95.8
11:32:25.780707;1294;154341;119021;129562;196656;524159;524159;66.0;0.0;95.8
11:32:25.942594;1295;153774;118984;129553;195859;524159;524159;66.0;0.0;95.8
11:32:25.951589;1296;153492;118987;129556;195393;524159;524159;66.0;0.0;95.8
11:32:25.958584;1297;153421;119003;129565;195205;524159;524159;66.0;0.0;95.8
11:32:25.966250;1298;153385;119004;129565;195082;524159;524159;66.0;0.0;95.8
11:32:25.973783;1299;153206;118957;129527;194822;524159;524159;65.0;0.0;95.8
11:32:26.143308;1300;152969;118918;129501;194488;524159;524159;65.0;0.0;95.8
11:32:26.151299;1301;152811;118903;129488;194235;524159;524159;65.0;0.0;95.8
11:32:26.158311;1302;152812;118929;129512;194204;524159;524159;65.0;0.0;95.8
11:32:26.165177;1303;152924;118955;129529;194320;524159;524159;65.0;0.0;95.8
11:32:26.173723;1304;153104;118979;129549;194529;524159;524159;65.0;914.9;95.8
11:32:26.343679;1305;153299;119003;129564;194767;524159;524159;65.0;0.0;95.8
11:32:26.350479;1306;153489;119021;129580;195006;524159;524159;65.0;0.0;95.8
11:32:26.358477;1307;153669;119037;129579;195243;524159;524159;65.0;0.0;95.8
11:32:26.365472;1308;153841;119052;129596;195465;524159;524159;65.0;0.0;95.8
11:32:26.372676;1309;154048;119076;129612;195729;524159;524159;65.0;0.0;95.8
11:32:26.543492;1310;154283;119116;129641;196035;524159;524159;65.0;0.0;95.8
11:32:26.551484;1311;154532;119148;129659;196389;524159;524159;65.0;0.0;95.8
11:32:26.558482;1312;154800;119188;129689;196789;524159;524159;65.0;0.0;95.8
11:32:26.566297;1313;155083;119236;129720;197214;524159;524159;65.0;0.0;95.8
11:32:26.573282;1314;155393;119279;129754;197683;524159;524159;65.0;0.0;95.8
11:32:26.744308;1315;155687;119318;129787;198137;524159;524159;65.0;0.0;95.8
11:32:26.751304;1316;155677;119245;129723;198233;524159;524159;65.0;0.0;95.8
11:32:26.758299;1317;154936;119032;129569;197418;524159;524159;65.0;0.0;95.8
11:32:26.765933;1318;154009;118875;129481;196313;524159;524159;65.0;0.0;95.8
11:32:26.773030;1319;153407;118834;129452;195547;524159;524159;65.0;0.0;95.8
11:32:26.944298;1320;153134;118836;129458;195157;524159;524159;65.0;0.0;95.8
11:32:26.951294;1321;153109;118865;129488;195064;524159;524159;65.0;0.0;95.8
11:32:26.962291;1322;153169;118887;129505;195109;524159;524159;65.0;0.0;95.8
11:32:26.971286;1323;153074;118861;129477;195015;524159;524159;65.0;0.0;95.8
11:32:26.976280;1324;152857;118818;129455;194782;524159;524159;65.0;0.0;95.8
11:32:27.144293;1325;152681;118789;129445;194575;524159;524159;65.0;0.0;95.8
11:32:27.152296;1326;152671;118818;129459;194564;524159;524159;65.0;908.8;95.8
11:32:27.160283;1327;152795;118855;129484;194723;524159;524159;65.0;0.0;95.8
11:32:27.168290;1328;152985;118886;129511;194962;524159;524159;65.0;0.0;95.8
11:32:27.175290;1329;153212;118922;129536;195260;524159;524159;65.0;0.0;95.8
11:32:27.344613;1330;153443;118952;129557;195577;524159;524159;65.0;0.0;95.8
11:32:27.353608;1331;153642;118971;129564;195869;524159;524159;65.0;0.0;95.8
11:32:27.360603;1332;153817;118993;129588;196133;524159;524159;65.0;0.0;95.8
11:32:27.368242;1333;154012;119025;129607;196431;524159;524159;65.0;0.0;95.8
11:32:27.375560;1334;154234;119055;129638;196774;524159;524159;65.0;0.0;95.8
11:32:27.540018;1335;154519;119112;129671;197192;524159;524159;65.0;0.0;95.8
11:32:27.549860;1336;154831;119167;129711;197634;524159;524159;65.0;0.0;95.8
11:32:27.559906;1337;155068;119170;129709;198002;524159;524159;65.0;0.0;95.8
11:32:27.569963;1338;154764;119033;129616;197728;524159;524159;65.0;0.0;95.8
11:32:27.569963;1339;154018;118876;129515;196875;524159;524159;65.0;0.0;95.8
11:32:27.740104;1340;153413;118813;129486;196143;524159;524159;65.0;0.0;95.8
11:32:27.749863;1341;153145;118813;129488;195786;524159;524159;65.0;0.0;95.8
11:32:27.759808;1342;153177;118865;129529;195775;524159;524159;65.0;0.0;95.8
11:32:27.759808;1343;153359;118910;129563;195970;524159;524159;65.0;0.0;95.8
11:32:27.769846;1344;153418;118901;129552;196056;524159;524159;65.0;0.0;95.8
11:32:27.939657;1345;153296;118866;129527;195920;524159;524159;65.0;0.0;95.8
11:32:27.949779;1346;153166;118857;129533;195788;524159;524159;65.0;0.0;95.8
11:32:27.959841;1347;153168;118874;129548;195795;524159;524159;65.0;0.0;95.8
11:32:27.959841;1348;153299;118921;129575;195971;524159;524159;65.0;0.0;95.8
11:32:27.969915;1349;153501;118962;129615;196233;524159;524159;65.0;0.0;95.8
11:32:28.140024;1350;153746;119014;129652;196557;524159;524159;65.0;0.0;95.8
11:32:28.149795;1351;154002;119045;129670;196902;524159;524159;65.0;980.6;95.8
11:32:28.159812;1352;154229;119081;129699;197226;524159;524159;65.0;0.0;95.8
11:32:28.164820;1353;154439;119101;129717;197513;524159;524159;65.0;0.0;95.8
11:32:28.174877;1354;154651;119146;129744;197803;524159;524159;65.0;0.0;95.8
11:32:28.339697;1355;154892;119180;129773;198118;524159;524159;65.0;0.0;95.8
11:32:28.349763;1356;155193;119234;129813;198489;524159;524159;65.0;0.0;95.8
11:32:28.359762;1357;155475;119262;129835;198856;524159;524159;65.0;0.0;95.8
11:32:28.359762;1358;155294;119146;129745;198657;524159;524159;65.0;0.0;95.8
11:32:28.369858;1359;154458;118947;129614;197635;524159;524159;65.0;0.0;95.8
11:32:28.540063;1360;153621;118847;129558;196535;524159;524159;65.0;0.0;95.8
11:32:28.549609;1361;153121;118813;129546;195798;524159;524159;65.0;0.0;95.8
11:32:28.559783;1362;152920;118837;129573;195414;524159;524159;65.0;0.0;95.8
11:32:28.569549;1363;152961;118871;129599;195340;524159;524159;65.0;0.0;95.8
11:32:28.580007;1364;152977;118874;129602;195254;524159;524159;65.0;0.0;95.8
11:32:28.739715;1365;152825;118838;129581;194970;524159;524159;65.0;0.0;95.8
11:32:28.749844;1366;152635;118805;129561;194646;524159;524159;65.0;0.0;95.8
11:32:28.759881;1367;152533;118810;129569;194452;524159;524159;65.0;0.0;95.8
11:32:28.769837;1368;152586;118832;129588;194436;524159;524159;65.0;0.0;95.8
11:32:28.774844;1369;152738;118874;129625;194554;524159;524159;65.0;0.0;95.8
11:32:28.939797;1370;152932;118912;129650;194739;524159;524159;65.0;0.0;95.8
11:32:28.949536;1371;153126;118935;129666;194915;524159;524159;65.0;0.0;95.8
11:32:28.959675;1372;153318;118952;129680;195108;524159;524159;65.0;0.0;95.8
11:32:28.959675;1373;153491;118977;129693;195296;524159;524159;65.0;0.0;95.8
11:32:28.969731;1374;153685;118997;129708;195485;524159;524159;65.0;0.0;95.8
11:32:29.150036;1375;153896;119029;129723;195710;524159;524159;65.0;974.4;95.8
11:32:29.159590;1376;154168;119070;129750;196002;524159;524159;65.0;0.0;95.8
11:32:29.169757;1377;154338;119062;129752;196193;524159;524159;65.0;0.0;95.8
11:32:29.169757;1378;153846;118880;129613;195603;524159;524159;65.0;0.0;95.8
11:32:29.169757;1379;152780;118662;129470;194261;524159;524159;65.0;0.0;95.8
11:32:29.339694;1380;151831;118544;129402;192989;524159;524159;65.0;0.0;95.8
11:32:29.349900;1381;151229;118491;129377;192134;524159;524159;65.0;0.0;95.8
11:32:29.359885;1382;150895;118478;129363;191580;524159;524159;65.0;0.0;95.8
11:32:29.369889;1383;150796;118482;129361;191322;524159;524159;65.0;0.0;95.8
11:32:29.369889;1384;150696;118462;129360;191102;524159;524159;65.0;0.0;95.8
11:32:29.549604;1385;150501;118422;129327;190790;524159;524159;65.0;0.0;95.8
11:32:29.559762;1386;150277;118384;129304;190440;524159;524159;65.0;0.0;95.8
11:32:29.569721;1387;150176;118384;129299;190229;524159;524159;65.0;0.0;95.8
11:32:29.579987;1388;150211;118401;129313;190221;524159;524159;65.0;0.0;95.8
11:32:29.589812;1389;150344;118422;129326;190344;524159;524159;65.0;0.0;95.8
11:32:29.739852;1390;150531;118451;129350;190535;524159;524159;65.0;0.0;95.8
11:32:29.749687;1391;150712;118473;129359;190733;524159;524159;65.0;0.0;95.8
11:32:29.759572;1392;150901;118481;129355;190958;524159;524159;65.0;0.0;95.8
11:32:29.769781;1393;151068;118482;129352;191177;524159;524159;65.0;0.0;95.8
11:32:29.769781;1394;151265;118502;129358;191431;524159;524159;65.0;0.0;95.8
11:32:29.939596;1395;151467;118523;129370;191693;524159;524159;65.0;0.0;95.8
11:32:29.949905;1396;151727;118559;129392;192029;524159;524159;65.0;855.0;95.8
11:32:29.959772;1397;152004;118615;129430;192393;524159;524159;65.0;0.0;95.8
11:32:29.970014;1398;152286;118654;129477;192791;524159;524159;65.0;0.0;95.8
11:32:29.970014;1399;152575;118703;129499;193187;524159;524159;65.0;0.0;95.8
11:32:30.149630;1400;152888;118751;129527;193609;524159;524159;65.0;0.0;95.8
11:32:30.159680;1401;153194;118798;129560;194032;524159;524159;65.0;0.0;95.8
11:32:30.169718;1402;153510;118835;129584;194454;524159;524159;65.0;0.0;95.8
11:32:30.174724;1403;153837;118873;129608;194892;524159;524159;65.0;0.0;95.8
11:32:30.179776;1404;153750;118760;129518;194854;524159;524159;65.0;0.0;95.8
11:32:30.339711;1405;152801;118495;129335;193724;524159;524159;65.0;0.0;95.8
11:32:30.349959;1406;151632;118307;129222;192277;524159;524159;65.0;0.0;95.8
11:32:30.359925;1407;150781;118217;129169;191158;524159;524159;65.0;0.0;95.8
11:32:30.369887;1408;150233;118175;129137;190378;524159;524159;65.0;0.0;95.8
11:32:30.369887;1409;149923;118162;129140;189901;524159;524159;65.0;0.0;95.8
11:32:30.539866;1410;149792;118154;129139;189646;524159;524159;65.0;0.0;95.8
11:32:30.554643;1411;149615;118128;129120;189360;524159;524159;65.0;0.0;95.8
11:32:30.564748;1412;149360;118078;129079;189004;524159;524159;65.0;0.0;95.8
11:32:30.569791;1413;149144;118058;129072;188709;524159;524159;65.0;0.0;95.8
11:32:30.580010;1414;149082;118056;129071;188588;524159;524159;65.0;0.0;95.8
11:32:30.749804;1415;149162;118087;129090;188656;524159;524159;65.0;0.0;95.8
11:32:30.759706;1416;149340;118122;129108;188829;524159;524159;65.0;0.0;95.8
11:32:30.769825;1417;149537;118149;129130;189056;524159;524159;65.0;812.4;95.8
11:32:30.779707;1418;149728;118174;129134;189296;524159;524159;65.0;0.0;95.8
11:32:30.779707;1419;149900;118190;129153;189520;524159;524159;65.0;0.0;95.8
11:32:30.950013;1420;150072;118198;129161;189781;524159;524159;65.0;0.0;95.8
11:32:30.955019;1421;150272;118228;129169;190061;524159;524159;65.0;0.0;95.8
11:32:30.964567;1422;150509;118262;129204;190397;524159;524159;65.0;0.0;95.8
11:32:30.969599;1423;150772;118300;129224;190776;524159;524159;65.0;0.0;95.9
11:32:30.969599;1424;151063;118348;129250;191193;524159;524159;65.0;0.0;95.9
11:32:31.149727;1425;151378;118395;129278;191648;524159;524159;65.0;0.0;95.9
11:32:31.164808;1426;151705;118442;129312;192125;524159;524159;65.0;0.0;95.9
11:32:31.169839;1427;152029;118486;129334;192614;524159;524159;65.0;0.0;95.9
11:32:31.174845;1428;152312;118512;129361;193079;524159;524159;65.0;0.0;95.9
11:32:31.179872;1429;152157;118384;129256;193016;524159;524159;65.0;0.0;95.9
11:32:31.339870;1430;151288;118147;129086;192033;524159;524159;65.0;0.0;95.9
11:32:31.349608;1431;150365;117997;129004;190899;524159;524159;65.0;0.0;95.9
11:32:31.359634;1432;149772;117949;128980;190148;524159;524159;65.0;0.0;95.9
11:32:31.369685;1433;149480;117939;128966;189734;524159;524159;65.0;0.0;95.9
11:32:31.369685;1434;149438;117967;128983;189635;524159;524159;64.0;0.0;95.9
11:32:31.549806;1435;149477;117975;129001;189641;524159;524159;64.0;0.0;95.9
11:32:31.549806;1436;149412;117954;128972;189541;524159;524159;64.0;796.1;95.9
11:32:31.559778;1437;149262;117921;128956;189361;524159;524159;64.0;0.0;95.9
11:32:31.569967;1438;149194;117921;128955;189274;524159;524159;64.0;0.0;95.9
11:32:31.579510;1439;149272;117944;128977;189368;524159;524159;65.0;0.0;95.9
11:32:31.749698;1440;149455;117985;129010;189608;524159;524159;65.0;0.0;95.9
11:32:31.759759;1441;149701;118033;129038;189929;524159;524159;65.0;0.0;95.9
11:32:31.764765;1442;149961;118075;129063;190291;524159;524159;65.0;0.0;95.9
11:32:31.769791;1443;150219;118108;129089;190651;524159;524159;65.0;0.0;95.9
11:32:31.779837;1444;150460;118136;129100;191003;524159;524159;65.0;0.0;95.9
11:32:31.950060;1445;150705;118160;129131;191360;524159;524159;65.0;0.0;95.9
11:32:31.950060;1446;150947;118203;129157;191726;524159;524159;65.0;0.0;95.9
11:32:31.959833;1447;151227;118249;129193;192148;524159;524159;65.0;0.0;95.9
11:32:31.969926;1448;151549;118297;129221;192612;524159;524159;65.0;0.0;95.8
11:32:31.979986;1449;151904;118365;129264;193115;524159;524159;65.0;0.0;95.8
11:32:32.149733;1450;152277;118426;129316;193652;524159;524159;65.0;0.0;95.8
11:32:32.169571;1451;152598;118450;129330;194137;524159;524159;65.0;0.0;95.8
11:32:32.169571;1452;152415;118315;129214;194027;524159;524159;65.0;0.0;95.8
11:32:32.169571;1453;151720;118135;129109;193237;524159;524159;65.0;0.0;95.8
11:32:32.179781;1454;151095;118054;129062;192495;524159;524159;65.0;0.0;95.8
11:32:32.350006;1455;150803;118063;129065;192117;524159;524159;65.0;0.0;95.8
11:32:32.350006;1456;150827;118110;129106;192102;524159;524159;65.0;0.0;95.8
11:32:32.359853;1457;151025;118169;129149;192336;524159;524159;65.0;0.0;95.8
11:32:32.369633;1458;151142;118179;129159;192515;524159;524159;65.0;0.0;95.8
11:32:32.379833;1459;151095;118150;129138;192499;524159;524159;65.0;0.0;95.8
11:32:32.550000;1460;150996;118140;129134;192439;524159;524159;65.0;0.0;95.8
11:32:32.555008;1461;151027;118154;129147;192512;524159;524159;65.0;0.0;95.8
11:32:32.565060;1462;151192;118200;129182;192736;524159;524159;65.0;0.0;95.8
11:32:32.569606;1463;151433;118255;129224;193084;524159;524159;65.0;1057.8;95.8
11:32:32.579796;1464;151728;118316;129258;193484;524159;524159;65.0;0.0;95.8
11:32:32.749635;1465;152037;118359;129285;193898;524159;524159;65.0;0.0;95.8
11:32:32.759695;1466;152335;118393;129307;194288;524159;524159;65.0;0.0;95.8
11:32:32.759695;1467;152603;118427;129345;194663;524159;524159;65.0;0.0;95.8
11:32:32.769858;1468;152863;118462;129366;195035;524159;524159;65.0;0.0;95.8
11:32:32.779784;1469;153135;118517;129400;195438;524159;524159;65.0;0.0;95.8
11:32:32.949866;1470;153455;118568;129439;195893;524159;524159;65.0;0.0;95.8
11:32:32.949866;1471;153796;118634;129487;196384;524159;524159;65.0;0.0;95.8
11:32:32.959882;1472;154005;118617;129474;196719;524159;524159;65.0;0.0;95.8
11:32:32.974535;1473;153602;118451;129355;196332;524159;524159;65.0;0.0;95.8
11:32:32.979557;1474;152830;118294;129256;195448;524159;524159;65.0;0.0;95.8
11:32:33.149965;1475;152277;118242;129226;194778;524159;524159;65.0;0.0;95.8
11:32:33.160025;1476;152065;118263;129258;194492;524159;524159;65.0;0.0;95.8
11:32:33.169885;1477;152125;118321;129303;194504;524159;524159;65.0;0.0;95.8
11:32:33.179862;1478;152315;118372;129337;194687;524159;524159;65.0;0.0;95.8
11:32:33.179862;1479;152371;118365;129337;194721;524159;524159;65.0;0.0;95.8
11:32:33.349629;1480;152305;118343;129322;194609;524159;524159;65.0;0.0;95.8
11:32:33.364696;1481;152241;118336;129317;194514;524159;524159;65.0;0.0;95.8
11:32:33.364696;1482;152306;118370;129342;194537;524159;524159;65.0;0.0;95.8
11:32:33.369724;1483;152487;118413;129381;194704;524159;524159;65.0;0.0;95.8
11:32:33.379958;1484;152734;118466;129415;194947;524159;524159;65.0;0.0;95.8
11:32:33.549577;1485;153023;118507;129451;195255;524159;524159;65.0;0.0;95.8
11:32:33.559828;1486;153276;118552;129481;195558;524159;524159;65.0;0.0;95.8
11:32:33.579664;1487;153501;118584;129498;195839;524159;524159;65.0;0.0;95.8
11:32:33.579664;1488;153733;118604;129514;196106;524159;524159;65.0;993.7;95.8
11:32:33.579664;1489;153950;118642;129545;196381;524159;524159;65.0;0.0;95.8
11:32:33.749977;1490;154232;118703;129578;196720;524159;524159;65.0;0.0;95.8
11:32:33.759623;1491;154489;118724;129611;197039;524159;524159;65.0;0.0;95.8
11:32:33.759623;1492;154299;118610;129513;196823;524159;524159;65.0;0.0;95.8
11:32:33.769868;1493;153480;118406;129379;195813;524159;524159;65.0;0.0;95.8
11:32:33.779768;1494;152626;118277;129314;194714;524159;524159;66.0;0.0;95.8
11:32:33.949642;1495;152085;118255;129292;193970;524159;524159;66.0;0.0;95.8
11:32:33.959693;1496;151821;118264;129309;193573;524159;524159;66.0;0.0;95.8
11:32:33.964704;1497;151817;118301;129343;193480;524159;524159;66.0;0.0;95.8
11:32:33.969768;1498;151853;118316;129346;193453;524159;524159;66.0;0.0;95.8
11:32:33.979915;1499;151740;118286;129321;193286;524159;524159;66.0;0.0;95.8
11:32:34.149986;1500;151584;118265;129309;193054;524159;524159;66.0;0.0;95.8
11:32:34.159541;1501;151507;118267;129310;192915;524159;524159;66.0;0.0;95.8
11:32:34.169721;1502;151576;118290;129328;192945;524159;524159;66.0;0.0;95.8
11:32:34.179599;1503;151743;118326;129351;193102;524159;524159;66.0;0.0;95.8
11:32:34.179599;1504;151976;118370;129378;193327;524159;524159;66.0;0.0;95.8
11:32:34.189986;1505;152224;118409;129401;193590;524159;524159;66.0;0.0;95.8
11:32:34.549750;1506;152449;118438;129419;193844;524159;524159;66.0;0.0;95.8
11:32:34.564759;1507;152665;118467;129436;194109;524159;524159;66.0;0.0;95.8
11:32:34.569808;1508;152879;118494;129458;194383;524159;524159;66.0;0.0;95.8
11:32:34.579818;1509;153116;118528;129477;194693;524159;524159;66.0;0.0;95.8
11:32:34.589670;1510;153384;118576;129506;195038;524159;524159;66.0;0.0;95.8
11:32:34.599702;1511;153689;118621;129535;195422;524159;524159;66.0;905.0;95.8
11:32:34.599702;1512;154011;118674;129565;195835;524159;524159;66.0;0.0;95.8
11:32:34.609999;1513;154333;118709;129590;196265;524159;524159;66.0;0.0;95.8
11:32:34.609999;1514;154191;118573;129480;196139;524159;524159;66.0;0.0;95.8
11:32:34.619753;1515;153264;118309;129299;195027;524159;524159;66.0;0.0;95.8
11:32:34.950037;1516;152208;118144;129209;193690;524159;524159;66.0;0.0;95.8
11:32:34.964699;1517;151475;118075;129165;192695;524159;524159;66.0;0.0;95.8
11:32:34.969719;1518;151055;118058;129154;192048;524159;524159;66.0;0.0;95.8
11:32:34.979530;1519;150877;118071;129164;191700;524159;524159;66.0;0.0;95.8
11:32:34.979530;1520;150849;118077;129179;191549;524159;524159;66.0;0.0;95.8
11:32:34.989657;1521;150755;118060;129155;191347;524159;524159;66.0;0.0;95.8
11:32:34.999698;1522;150555;118019;129131;191061;524159;524159;66.0;0.0;95.8
11:32:35.009777;1523;150397;118010;129119;190816;524159;524159;66.0;0.0;95.8
11:32:35.009777;1524;150390;118024;129134;190756;524159;524159;66.0;0.0;95.8
11:32:35.019709;1525;150513;118062;129156;190854;524159;524159;66.0;0.0;95.8
11:32:35.364620;1526;150704;118097;129178;191053;524159;524159;66.0;0.0;95.8
11:32:35.369673;1527;150930;118130;129198;191323;524159;524159;66.0;0.0;95.8
11:32:35.379534;1528;151151;118155;129221;191579;524159;524159;66.0;0.0;95.8
11:32:35.379534;1529;151346;118185;129227;191825;524159;524159;66.0;0.0;95.8
11:32:35.379534;1530;151545;118207;129247;192104;524159;524159;66.0;0.0;95.8
11:32:35.389823;1531;151758;118232;129265;192386;524159;524159;66.0;826.3;95.8
11:32:35.399788;1532;152017;118279;129292;192708;524159;524159;66.0;0.0;95.8
11:32:35.409545;1533;152309;118325;129323;193084;524159;524159;66.0;0.0;95.8
11:32:35.409545;1534;152605;118380;129358;193488;524159;524159;66.0;0.0;95.8
11:32:35.419948;1535;152932;118422;129386;193918;524159;524159;66.0;0.0;95.8
11:32:35.759688;1536;153251;118478;129420;194366;524159;524159;66.0;0.0;95.8
11:32:35.769990;1537;153569;118529;129455;194816;524159;524159;66.0;0.0;95.8
11:32:35.769990;1538;153908;118575;129492;195287;524159;524159;66.0;0.0;95.8
11:32:35.779811;1539;154208;118609;129509;195727;524159;524159;66.0;0.0;95.8
11:32:35.789903;1540;154036;118466;129396;195640;524159;524159;66.0;0.0;95.8
11:32:35.789903;1541;153064;118191;129214;194571;524159;524159;66.0;0.0;95.8
11:32:35.799785;1542;152004;118039;129119;193295;524159;524159;66.0;0.0;95.8
11:32:35.809787;1543;151307;117977;129091;192355;524159;524159;66.0;0.0;95.8
11:32:35.819735;1544;150914;117974;129078;191796;524159;524159;66.0;0.0;95.8
11:32:35.819735;1545;150774;117990;129095;191529;524159;524159;66.0;0.0;95.8
11:32:36.159599;1546;150755;118002;129104;191413;524159;524159;66.0;0.0;95.8
11:32:36.164605;1547;150638;117980;129086;191232;524159;524159;66.0;0.0;95.8
11:32:36.169636;1548;150434;117941;129069;190929;524159;524159;66.0;0.0;95.8
11:32:36.179593;1549;150280;117928;129048;190702;524159;524159;66.0;0.0;95.8
11:32:36.189829;1550;150306;117951;129064;190672;524159;524159;66.0;782.7;95.8
11:32:36.189829;1551;150440;117993;129089;190790;524159;524159;66.0;0.0;95.8
11:32:36.199512;1552;150670;118024;129117;191008;524159;524159;66.0;0.0;95.8
11:32:36.209941;1553;150905;118070;129137;191266;524159;524159;66.0;0.0;95.8
11:32:36.219779;1554;151158;118105;129164;191541;524159;524159;66.0;0.0;95.8
11:32:36.219779;1555;151375;118129;129181;191820;524159;524159;66.0;0.0;95.8
11:32:36.559650;1556;151587;118157;129202;192104;524159;524159;66.0;0.0;95.8
11:32:36.569794;1557;151816;118191;129228;192401;524159;524159;66.0;0.0;95.8
11:32:36.579856;1558;152081;118236;129254;192735;524159;524159;66.0;0.0;95.8
11:32:36.589926;1559;152371;118282;129288;193106;524159;524159;66.0;0.0;95.8
11:32:36.599824;1560;152691;118336;129318;193523;524159;524159;66.0;0.0;95.8
11:32:36.609770;1561;153007;118386;129356;193946;524159;524159;66.0;0.0;95.8
11:32:36.609770;1562;153340;118441;129388;194388;524159;524159;66.0;0.0;95.8
11:32:36.609770;1563;153693;118498;129430;194843;524159;524159;66.0;0.0;95.8
11:32:36.619526;1564;154046;118546;129470;195284;524159;524159;66.0;0.0;95.8
11:32:36.619526;1565;154070;118453;129385;195374;524159;524159;66.0;0.0;95.8
11:32:36.959581;1566;153341;118217;129218;194555;524159;524159;66.0;0.0;95.8
11:32:36.959581;1567;152375;118054;129117;193405;524159;524159;66.0;0.0;95.8
11:32:36.969763;1568;151727;117996;129087;192537;524159;524159;66.0;0.0;95.8
11:32:36.979609;1569;151421;117996;129094;192062;524159;524159;66.0;0.0;95.8
11:32:36.989661;1570;151353;118034;129118;191899;524159;524159;66.0;0.0;95.8
11:32:36.989661;1571;151421;118064;129133;191909;524159;524159;66.0;0.0;95.8
11:32:36.999787;1572;151398;118049;129124;191841;524159;524159;66.0;0.0;95.8
11:32:37.009930;1573;151264;118016;129097;191633;524159;524159;66.0;889.8;95.7
11:32:37.019998;1574;151167;118008;129099;191462;524159;524159;66.0;0.0;95.7
11:32:37.019998;1575;151194;118026;129114;191458;524159;524159;66.0;0.0;95.7
11:32:37.160002;1576;151353;118069;129145;191615;524159;524159;66.0;0.0;95.7
11:32:37.169664;1577;151588;118124;129180;191875;524159;524159;66.0;0.0;95.7
11:32:37.174670;1578;151845;118170;129214;192201;524159;524159;66.0;0.0;95.7
11:32:37.179695;1579;152098;118203;129245;192540;524159;524159;66.0;0.0;95.7
11:32:37.179695;1580;152340;118236;129254;192866;524159;524159;66.0;0.0;95.7
11:32:37.559786;1581;152579;118259;129278;193166;524159;524159;66.0;0.0;95.7
11:32:37.569977;1582;152815;118294;129303;193467;524159;524159;66.0;0.0;95.7
11:32:37.569977;1583;153063;118337;129333;193813;524159;524159;66.0;0.0;95.7
11:32:37.579918;1584;153339;118381;129369;194199;524159;524159;66.0;0.0;95.7
11:32:37.589776;1585;153650;118443;129411;194628;524159;524159;66.0;0.0;95.7
11:32:37.599864;1586;153969;118501;129445;195068;524159;524159;66.0;0.0;95.7
11:32:37.609606;1587;154338;118558;129492;195571;524159;524159;66.0;0.0;95.7
11:32:37.609606;1588;154693;118617;129525;196064;524159;524159;66.0;0.0;95.7
11:32:37.619729;1589;154777;118549;129476;196259;524159;524159;66.0;0.0;95.7
11:32:37.629540;1590;154157;118331;129319;195590;524159;524159;66.0;0.0;95.7
11:32:37.749831;1591;153311;118184;129232;194596;524159;524159;66.0;0.0;95.7
11:32:37.764917;1592;152744;118148;129216;193860;524159;524159;66.0;0.0;95.7
11:32:37.769970;1593;152552;118173;129237;193528;524159;524159;66.0;0.0;95.7
11:32:37.780094;1594;152626;118230;129285;193530;524159;524159;66.0;0.0;95.7
11:32:37.780094;1595;152789;118275;129315;193653;524159;524159;66.0;0.0;95.7
11:32:37.949925;1596;152824;118263;129304;193678;524159;524159;66.0;0.0;95.7
11:32:37.964660;1597;152703;118232;129287;193513;524159;524159;66.0;0.0;95.7
11:32:37.969740;1598;152595;118235;129284;193386;524159;524159;66.0;0.0;95.7
11:32:37.979782;1599;152624;118264;129308;193403;524159;524159;66.0;1035.5;95.7
11:32:37.979782;1600;152773;118315;129344;193552;524159;524159;66.0;0.0;95.7
11:32:38.149874;1601;153022;118367;129387;193824;524159;524159;66.0;0.0;95.7
11:32:38.164762;1602;153304;118409;129424;194142;524159;524159;66.0;0.0;95.7
11:32:38.169809;1603;153573;118465;129451;194481;524159;524159;66.0;0.0;95.7
11:32:38.179799;1604;153817;118501;129483;194802;524159;524159;66.0;0.0;95.7
11:32:38.189851;1605;154065;118530;129496;195121;524159;524159;66.0;0.0;95.7
11:32:38.349854;1606;154307;118566;129520;195442;524159;524159;66.0;0.0;95.7
11:32:38.364832;1607;154578;118606;129547;195794;524159;524159;66.0;0.0;95.7
11:32:38.374903;1608;154866;118666;129589;196164;524159;524159;66.0;0.0;95.7
11:32:38.379935;1609;155181;118718;129633;196566;524159;524159;66.0;0.0;95.7
11:32:38.379935;1610;155529;118780;129670;197026;524159;524159;66.0;0.0;95.7
11:32:38.549859;1611;155872;118836;129714;197474;524159;524159;66.0;0.0;95.7
11:32:38.559607;1612;156012;118793;129678;197694;524159;524159;66.0;0.0;95.7
11:32:38.569837;1613;155477;118576;129519;197095;524159;524159;66.0;0.0;95.7
11:32:38.579881;1614;154624;118409;129406;196058;524159;524159;66.0;0.0;95.7
11:32:38.579881;1615;154011;118347;129388;195250;524159;524159;66.0;0.0;95.7
11:32:38.749954;1616;153778;118378;129410;194873;524159;524159;66.0;0.0;95.7
11:32:38.759770;1617;153808;118429;129452;194817;524159;524159;66.0;0.0;95.7
11:32:38.769689;1618;153975;118477;129487;194939;524159;524159;66.0;0.0;95.7
11:32:38.779673;1619;154012;118467;129477;194953;524159;524159;67.0;0.0;95.7
11:32:38.779673;1620;153913;118443;129455;194793;524159;524159;67.0;0.0;95.7
11:32:38.949653;1621;153804;118438;129451;194622;524159;524159;67.0;0.0;95.7
11:32:38.959687;1622;153799;118455;129458;194600;524159;524159;67.0;0.0;95.7
11:32:38.969757;1623;153937;118497;129491;194730;524159;524159;67.0;0.0;95.7
11:32:38.979774;1624;154162;118546;129532;194952;524159;524159;67.0;1006.3;95.7
11:32:38.989916;1625;154424;118602;129560;195226;524159;524159;67.0;0.0;95.7
11:32:39.149647;1626;154701;118649;129596;195548;524159;524159;67.0;0.0;95.7
11:32:39.159901;1627;154956;118682;129632;195860;524159;524159;67.0;0.0;95.7
11:32:39.169910;1628;155179;118715;129651;196146;524159;524159;67.0;0.0;95.7
11:32:39.179833;1629;155420;118752;129673;196451;524159;524159;67.0;0.0;95.7
11:32:39.189715;1630;155667;118792;129699;196786;524159;524159;67.0;0.0;95.7
11:32:39.349879;1631;155954;118837;129728;197156;524159;524159;67.0;0.0;95.7
